Ewe/V	I/mA
5.000000000000000E-001	0.000000000000000E+000
4.990000128746033E-001	-1.696592022426557E-007
4.979999959468842E-001	-3.584295882319566E-008
4.970000088214874E-001	-6.220432169357082E-008
4.959999918937683E-001	-4.581971424499898E-008
4.950000047683716E-001	-4.722947011259748E-008
4.939999878406525E-001	-4.460087055235817E-008
4.930000007152557E-001	-4.437844225435583E-008
4.920000135898590E-001	-4.406422604574800E-008
4.909999966621399E-001	-4.427722188893313E-008
4.900000095367432E-001	-4.469063341616675E-008
4.889999926090240E-001	-4.533464803557763E-008
4.880000054836273E-001	-4.614802051605693E-008
4.869999885559082E-001	-4.711602485940602E-008
4.860000014305115E-001	-4.821923482722923E-008
4.850000143051147E-001	-4.944696740949439E-008
4.839999973773956E-001	-5.079068543523135E-008
4.830000102519989E-001	-5.224477206411393E-008
4.819999933242798E-001	-5.380532996923648E-008
4.810000061988831E-001	-5.546993264715638E-008
4.799999892711639E-001	-5.723725493567144E-008
4.790000021457672E-001	-5.910685274557181E-008
4.779999852180481E-001	-6.107901384666548E-008
4.769999980926514E-001	-6.315462286465845E-008
4.760000109672546E-001	-6.533509377959490E-008
4.749999940395355E-001	-6.762225979173309E-008
4.740000069141388E-001	-7.001837332154537E-008
4.729999899864197E-001	-7.252602785001727E-008
4.720000028610229E-001	-7.514814370779277E-008
4.709999859333038E-001	-7.788794675889221E-008
4.699999988079071E-001	-8.074893997900290E-008
4.690000116825104E-001	-8.373490345547907E-008
4.679999947547913E-001	-8.684989438734192E-008
4.670000076293945E-001	-9.009821155814279E-008
4.659999907016754E-001	-9.348441665224527E-008
4.650000035762787E-001	-9.701334136025253E-008
4.639999866485596E-001	-1.006900447464432E-007
4.629999995231628E-001	-1.045198700921901E-007
4.620000123977661E-001	-1.085084022633964E-007
4.609999954700470E-001	-1.126615174484868E-007
4.600000083446503E-001	-1.169853334204163E-007
4.589999914169312E-001	-1.214862805909434E-007
4.580000042915344E-001	-1.261710309563568E-007
4.569999873638153E-001	-1.310465762571766E-007
4.560000002384186E-001	-1.361202350835811E-007
4.550000131130219E-001	-1.413995676102786E-007
4.539999961853027E-001	-1.468925461267645E-007
4.530000090599060E-001	-1.526073987179188E-007
4.519999921321869E-001	-1.585527229508443E-007
4.510000050067902E-001	-1.647374858748663E-007
4.499999880790710E-001	-1.711710240215325E-007
4.490000009536743E-001	-1.778630291937588E-007
4.480000138282776E-001	-1.848236195201025E-007
4.469999969005585E-001	-1.920633110330527E-007
4.460000097751617E-001	-1.995930318798855E-007
4.449999928474426E-001	-2.074241791660825E-007
4.440000057220459E-001	-2.155685905336213E-007
4.429999887943268E-001	-2.240386010043949E-007
4.420000016689301E-001	-2.328470287693563E-007
4.409999847412109E-001	-2.420072178210830E-007
4.399999976158142E-001	-2.515329811103584E-007
4.390000104904175E-001	-2.614388279198465E-007
4.379999935626984E-001	-2.717396796469984E-007
4.370000064373016E-001	-2.824511966537102E-007
4.359999895095825E-001	-2.935895508926478E-007
4.350000023841858E-001	-3.051716532809223E-007
4.339999854564667E-001	-3.172150400132523E-007
4.329999983310699E-001	-3.297379578270920E-007
4.320000112056732E-001	-3.427593640026316E-007
4.309999942779541E-001	-3.562990116279252E-007
4.300000071525574E-001	-3.703773643337627E-007
4.289999902248383E-001	-3.850157952456357E-007
4.280000030994415E-001	-4.002364732968999E-007
4.269999861717224E-001	-4.160624484939035E-007
4.259999990463257E-001	-4.325177087594057E-007
4.250000119209290E-001	-4.496271799325768E-007
4.239999949932098E-001	-4.674167541907082E-007
4.230000078678131E-001	-4.859134605794679E-007
4.219999909400940E-001	-5.051451807958074E-007
4.210000038146973E-001	-5.251412176221493E-007
4.199999868869781E-001	-5.459316980704898E-007
4.189999997615814E-001	-5.675482839251345E-007
4.180000126361847E-001	-5.900235464650905E-007
4.169999957084656E-001	-6.133917054285121E-007
4.160000085830688E-001	-6.376880037350929E-007
4.149999916553497E-001	-6.629493327636737E-007
4.140000045299530E-001	-6.892139481351478E-007
4.129999876022339E-001	-7.165215833992988E-007
4.120000004768372E-001	-7.449136205650575E-007
4.110000133514404E-001	-7.744330332570826E-007
4.099999964237213E-001	-8.051246140894364E-007
4.090000092983246E-001	-8.370347472919093E-007
4.079999923706055E-001	-8.702118066139519E-007
4.070000052452087E-001	-9.047060416378372E-007
4.059999883174896E-001	-9.405696346220793E-007
4.050000011920929E-001	-9.778568710316904E-007
4.039999842643738E-001	-1.016624310068437E-006
4.029999971389771E-001	-1.056930614140583E-006
4.020000100135803E-001	-1.098836719393148E-006
4.009999930858612E-001	-1.142406176768418E-006
4.000000059604645E-001	-1.187704810945434E-006
3.989999890327454E-001	-1.234801288774179E-006
3.980000019073486E-001	-1.283767005588743E-006
3.969999849796295E-001	-1.334675857833645E-006
3.959999978542328E-001	-1.387605038871698E-006
3.950000107288361E-001	-1.442634584236657E-006
3.939999938011169E-001	-1.499847826380574E-006
3.930000066757202E-001	-1.559331280986953E-006
3.919999897480011E-001	-1.621174988031271E-006
3.910000026226044E-001	-1.685472625467810E-006
3.899999856948853E-001	-1.752321281855984E-006
3.889999985694885E-001	-1.821822252168204E-006
3.880000114440918E-001	-1.894080696729361E-006
3.869999945163727E-001	-1.969205868590507E-006
3.860000073909760E-001	-2.047311227215687E-006
3.849999904632568E-001	-2.128515006916132E-006
3.840000033378601E-001	-2.212940216850257E-006
3.829999864101410E-001	-2.300714413649985E-006
3.819999992847443E-001	-2.391970383541775E-006
3.810000121593475E-001	-2.486845687599271E-006
3.799999952316284E-001	-2.585484480732703E-006
3.790000081062317E-001	-2.688035237952136E-006
3.779999911785126E-001	-2.794653255477897E-006
3.770000040531158E-001	-2.905499513872201E-006
3.759999871253967E-001	-3.020741814907524E-006
3.750000000000000E-001	-3.140554099445581E-006
3.740000128746033E-001	-3.265117584305699E-006
3.729999959468842E-001	-3.394620080143795E-006
3.720000088214874E-001	-3.529257583068102E-006
3.709999918937683E-001	-3.669233137770789E-006
3.700000047683716E-001	-3.814758656517370E-006
3.689999878406525E-001	-3.966053100157296E-006
3.680000007152557E-001	-4.123345206608064E-006
3.669999837875366E-001	-4.286872808734188E-006
3.659999966621399E-001	-4.456882379599847E-006
3.650000095367432E-001	-4.633630396710942E-006
3.639999926090240E-001	-4.817383796762442E-006
3.630000054836273E-001	-5.008419520891039E-006
3.619999885559082E-001	-5.207025878917193E-006
3.610000014305115E-001	-5.413502549345139E-006
3.599999845027924E-001	-5.628160124615533E-006
3.589999973773956E-001	-5.851322839589557E-006
3.580000102519989E-001	-6.083327207306866E-006
3.569999933242798E-001	-6.324522018985590E-006
3.560000061988831E-001	-6.575271072506439E-006
3.549999892711639E-001	-6.835952262917999E-006
3.540000021457672E-001	-7.106957582436735E-006
3.529999852180481E-001	-7.388695394183742E-006
3.519999980926514E-001	-7.681589522690047E-006
3.510000109672546E-001	-7.986081072886009E-006
3.499999940395355E-001	-8.302627065859269E-006
3.490000069141388E-001	-8.631704076833557E-006
3.479999899864197E-001	-8.973806870926637E-006
3.470000028610229E-001	-9.329449312645011E-006
3.459999859333038E-001	-9.699166184873320E-006
3.449999988079071E-001	-1.008351136988495E-005
3.440000116825104E-001	-1.048306330631021E-005
3.429999947547913E-001	-1.089842135115759E-005
3.420000076293945E-001	-1.133020850829780E-005
3.409999907016754E-001	-1.177907142846379E-005
3.400000035762787E-001	-1.224568313773489E-005
3.389999866485596E-001	-1.273074303753674E-005
3.379999995231628E-001	-1.323497781413607E-005
3.370000123977661E-001	-1.375914143864065E-005
3.359999954700470E-001	-1.430401789548341E-005
3.350000083446503E-001	-1.487042391090654E-005
3.339999914169312E-001	-1.545920349599328E-005
3.330000042915344E-001	-1.607123704161495E-005
3.319999873638153E-001	-1.670743949944153E-005
3.310000002384186E-001	-1.736875674396288E-005
3.299999833106995E-001	-1.805617830541451E-005
3.289999961853027E-001	-1.877072827483062E-005
3.280000090599060E-001	-1.951346712303348E-005
3.269999921321869E-001	-2.028550443355925E-005
3.260000050067902E-001	-2.108798435074277E-005
3.249999880790710E-001	-2.192210195062216E-005
3.240000009536743E-001	-2.278909414599184E-005
3.229999840259552E-001	-2.369024878134951E-005
3.219999969005585E-001	-2.462689917592797E-005
3.210000097751617E-001	-2.560043503763154E-005
3.199999928474426E-001	-2.661229518707842E-005
3.190000057220459E-001	-2.766397483355831E-005
3.179999887943268E-001	-2.875702739402186E-005
3.170000016689301E-001	-2.989306631207000E-005
3.159999847412109E-001	-3.107376323896460E-005
3.149999976158142E-001	-3.230086076655425E-005
3.140000104904175E-001	-3.357615423738025E-005
3.129999935626984E-001	-3.490152812446468E-005
3.120000064373016E-001	-3.627891783253290E-005
3.109999895095825E-001	-3.771034243982285E-005
3.100000023841858E-001	-3.919789378414862E-005
3.089999854564667E-001	-4.074375101481564E-005
3.079999983310699E-001	-4.235016240272671E-005
3.070000112056732E-001	-4.401947080623358E-005
3.059999942779541E-001	-4.575409911922179E-005
3.050000071525574E-001	-4.755657209898345E-005
3.039999902248383E-001	-4.942949453834444E-005
3.030000030994415E-001	-5.137558036949486E-005
3.019999861717224E-001	-5.339763811207376E-005
3.009999990463257E-001	-5.549857814912684E-005
3.000000119209290E-001	-5.768142364104278E-005
2.989999949932098E-001	-5.994930688757449E-005
2.980000078678131E-001	-6.230548024177551E-005
2.969999909400940E-001	-6.475329428212717E-005
2.960000038146973E-001	-6.729625602019951E-005
2.949999868869781E-001	-6.993797433096915E-005
2.939999997615814E-001	-7.268218905664980E-005
2.929999828338623E-001	-7.553278555860743E-005
2.919999957084656E-001	-7.849378016544506E-005
2.910000085830688E-001	-8.156934200087562E-005
2.899999916553497E-001	-8.476378570776433E-005
2.890000045299530E-001	-8.808156417217106E-005
2.879999876022339E-001	-9.152730490313843E-005
2.870000004768372E-001	-9.510578820481896E-005
2.859999835491180E-001	-9.882196900434792E-005
2.849999964237213E-001	-1.026809695758857E-004
2.840000092983246E-001	-1.066880795406178E-004
2.829999923706055E-001	-1.108487849705853E-004
2.820000052452087E-001	-1.151687392848544E-004
2.809999883174896E-001	-1.196538141812198E-004
2.800000011920929E-001	-1.243100559804589E-004
2.789999842643738E-001	-1.291437074542046E-004
2.779999971389771E-001	-1.341612369287759E-004
2.770000100135803E-001	-1.393693237332627E-004
2.759999930858612E-001	-1.447748363716528E-004
2.750000059604645E-001	-1.503849052824080E-004
2.739999890327454E-001	-1.562068355269730E-004
2.730000019073486E-001	-1.622482086531818E-004
2.719999849796295E-001	-1.685168390395120E-004
2.709999978542328E-001	-1.750207302393392E-004
2.700000107288361E-001	-1.817681913962588E-004
2.689999938011169E-001	-1.887677499325946E-004
2.680000066757202E-001	-1.960281952051446E-004
2.669999897480011E-001	-2.035585494013503E-004
2.660000026226044E-001	-2.113681111950427E-004
2.649999856948853E-001	-2.194664557464421E-004
2.639999985694885E-001	-2.278634055983275E-004
2.629999816417694E-001	-2.365690597798675E-004
2.619999945163727E-001	-2.455937501508743E-004
2.610000073909760E-001	-2.549481287132949E-004
2.599999904632568E-001	-2.646430802997202E-004
2.590000033378601E-001	-2.746898098848760E-004
2.579999864101410E-001	-2.850997261703014E-004
2.569999992847443E-001	-2.958845288958400E-004
2.559999823570251E-001	-3.070562379434705E-004
2.549999952316284E-001	-3.186270478181541E-004
2.540000081062317E-001	-3.306094731669873E-004
2.529999911785126E-001	-3.430162614677101E-004
2.520000040531158E-001	-3.558603930287063E-004
2.509999871253967E-001	-3.691551100928336E-004
2.500000000000000E-001	-3.829138877335936E-004
2.489999979734421E-001	-3.971504338551313E-004
2.479999959468842E-001	-4.118785727769136E-004
2.469999939203262E-001	-4.271124489605427E-004
2.459999918937683E-001	-4.428662941791117E-004
2.449999898672104E-001	-4.591545730363578E-004
2.440000027418137E-001	-4.759918083436787E-004
2.430000007152557E-001	-4.933927557431161E-004
2.419999986886978E-001	-5.113721126690507E-004
2.409999966621399E-001	-5.299448966979980E-004
2.399999946355820E-001	-5.491258343681693E-004
2.389999926090240E-001	-5.689300014637411E-004
2.379999905824661E-001	-5.893722409382463E-004
2.370000034570694E-001	-6.104673957452178E-004
2.360000014305115E-001	-6.322302506305277E-004
2.349999994039536E-001	-6.546754157170653E-004
2.339999973773956E-001	-6.778173847123981E-004
2.329999953508377E-001	-7.016703602857888E-004
2.319999933242798E-001	-7.262483122758567E-004
2.309999912977219E-001	-7.515648612752557E-004
2.299999892711639E-001	-7.776332786306739E-004
2.290000021457672E-001	-8.044662536121905E-004
2.280000001192093E-001	-8.320761844515800E-004
2.269999980926514E-001	-8.604747708886862E-004
2.259999960660934E-001	-8.896730723790824E-004
2.249999940395355E-001	-9.196813916787505E-004
2.239999920129776E-001	-9.505093330517411E-004
2.229999899864197E-001	-9.821655694395304E-004
2.220000028610229E-001	-1.014657900668681E-003
2.210000008344650E-001	-1.047992962412536E-003
2.199999988079071E-001	-1.082176342606545E-003
2.189999967813492E-001	-1.117212465032935E-003
2.179999947547913E-001	-1.153104356490076E-003
2.169999927282333E-001	-1.189853763207793E-003
2.159999907016754E-001	-1.227460918016732E-003
2.149999886751175E-001	-1.265924307517707E-003
2.140000015497208E-001	-1.305240904912353E-003
2.129999995231628E-001	-1.345406170003116E-003
2.119999974966049E-001	-1.386413117870688E-003
2.109999954700470E-001	-1.428253366611898E-003
2.099999934434891E-001	-1.470916322432458E-003
2.089999914169312E-001	-1.514389296062291E-003
2.079999893903732E-001	-1.558657269924879E-003
2.070000022649765E-001	-1.603703130967915E-003
2.060000002384186E-001	-1.649507437832654E-003
2.049999982118607E-001	-1.696048304438591E-003
2.039999961853027E-001	-1.743301399983466E-003
2.029999941587448E-001	-1.791239948943257E-003
2.019999921321869E-001	-1.839834614656866E-003
2.009999901056290E-001	-1.889053382910788E-003
1.999999880790710E-001	-1.938861794769764E-003
1.990000009536743E-001	-1.989223062992096E-003
1.979999989271164E-001	-2.040097024291754E-003
1.969999969005585E-001	-2.091442001983523E-003
1.959999948740005E-001	-2.143213059753180E-003
1.949999928474426E-001	-2.195362932980061E-003
1.939999908208847E-001	-2.247842261567712E-003
1.929999887943268E-001	-2.300598891451955E-003
1.920000016689301E-001	-2.353578805923462E-003
1.909999996423721E-001	-2.406725659966469E-003
1.899999976158142E-001	-2.459981478750706E-003
1.889999955892563E-001	-2.513285493478179E-003
1.879999935626984E-001	-2.566576469689608E-003
1.869999915361404E-001	-2.619790611788630E-003
1.859999895095825E-001	-2.672863425686955E-003
1.850000023841858E-001	-2.725728787481785E-003
1.840000003576279E-001	-2.778320340439677E-003
1.829999983310699E-001	-2.830570098012686E-003
1.819999963045120E-001	-2.882410306483507E-003
1.809999942779541E-001	-2.933772746473551E-003
1.799999922513962E-001	-2.984588965773582E-003
1.789999902248383E-001	-3.034791210666299E-003
1.779999881982803E-001	-3.084312193095684E-003
1.770000010728836E-001	-3.133084857836366E-003
1.759999990463257E-001	-3.181044012308121E-003
1.749999970197678E-001	-3.228124929592013E-003
1.739999949932098E-001	-3.274265443906188E-003
1.729999929666519E-001	-3.319404087960720E-003
1.719999909400940E-001	-3.363482421264052E-003
1.709999889135361E-001	-3.406443633139133E-003
1.700000017881393E-001	-3.448233939707279E-003
1.689999997615814E-001	-3.488801652565598E-003
1.679999977350235E-001	-3.528098575770855E-003
1.669999957084656E-001	-3.566079307347536E-003
1.659999936819077E-001	-3.602701704949141E-003
1.649999916553497E-001	-3.637927351519465E-003
1.639999896287918E-001	-3.671720623970032E-003
1.629999876022339E-001	-3.704050555825233E-003
1.620000004768372E-001	-3.734888741746545E-003
1.609999984502792E-001	-3.764211200177670E-003
1.599999964237213E-001	-3.791997907683253E-003
1.589999943971634E-001	-3.818232100456953E-003
1.579999923706055E-001	-3.842901438474655E-003
1.569999903440475E-001	-3.865996608510613E-003
1.559999883174896E-001	-3.887512721121311E-003
1.550000011920929E-001	-3.907448612153530E-003
1.539999991655350E-001	-3.925805911421776E-003
1.529999971389771E-001	-3.942590672522783E-003
1.519999951124191E-001	-3.957812208682299E-003
1.509999930858612E-001	-3.971482627093792E-003
1.499999910593033E-001	-3.983616828918457E-003
1.489999890327454E-001	-3.994234837591648E-003
1.480000019073486E-001	-4.003356210887432E-003
1.469999998807907E-001	-4.011006560176611E-003
1.459999978542328E-001	-4.017211496829987E-003
1.449999958276749E-001	-4.021999891847372E-003
1.439999938011169E-001	-4.025402944535017E-003
1.429999917745590E-001	-4.027453716844320E-003
1.419999897480011E-001	-4.028186202049255E-003
1.409999877214432E-001	-4.027637187391520E-003
1.400000005960464E-001	-4.025843925774097E-003
1.389999985694885E-001	-4.022845532745123E-003
1.379999965429306E-001	-4.018681589514017E-003
1.369999945163727E-001	-4.013392608612776E-003
1.359999924898148E-001	-4.007020499557257E-003
1.349999904632568E-001	-3.999606706202030E-003
1.339999884366989E-001	-3.991194069385529E-003
1.330000013113022E-001	-3.981824032962322E-003
1.319999992847443E-001	-3.971539903432131E-003
1.309999972581863E-001	-3.960383590310812E-003
1.299999952316284E-001	-3.948397468775511E-003
1.289999932050705E-001	-3.935623914003372E-003
1.279999911785126E-001	-3.922104369848967E-003
1.269999891519547E-001	-3.907879348844290E-003
1.259999871253967E-001	-3.892989829182625E-003
1.249999925494194E-001	-3.877475159242749E-003
1.239999979734421E-001	-3.861374687403440E-003
1.229999959468842E-001	-3.844726132228971E-003
1.219999939203262E-001	-3.827567212283611E-003
1.209999918937683E-001	-3.809933783486485E-003
1.199999973177910E-001	-3.791861468926072E-003
1.189999952912331E-001	-3.773384727537632E-003
1.179999932646751E-001	-3.754536388441920E-003
1.169999912381172E-001	-3.735349047929049E-003
1.159999966621399E-001	-3.715853439643979E-003
1.149999946355820E-001	-3.696080064401031E-003
1.139999926090240E-001	-3.676057327538729E-003
1.129999905824661E-001	-3.655813168734312E-003
1.119999960064888E-001	-3.635374363511801E-003
1.109999939799309E-001	-3.614766057580709E-003
1.099999919533730E-001	-3.594013163819909E-003
1.089999973773956E-001	-3.573138732463121E-003
1.079999953508377E-001	-3.552164882421494E-003
1.069999933242798E-001	-3.531113266944885E-003
1.059999912977219E-001	-3.510003443807364E-003
1.049999967217445E-001	-3.488855203613639E-003
1.039999946951866E-001	-3.467686008661985E-003
1.029999926686287E-001	-3.446513554081321E-003
1.019999906420708E-001	-3.425353672355413E-003
1.009999960660934E-001	-3.404221730306745E-003
9.999999403953552E-002	-3.383132163435221E-003
9.899999201297760E-002	-3.362098708748817E-003
9.799999743700027E-002	-3.341133706271648E-003
9.699999541044235E-002	-3.320249263197184E-003
9.599999338388443E-002	-3.299456322565675E-003
9.499999135732651E-002	-3.278765361756086E-003
9.399999678134918E-002	-3.258185926824808E-003
9.299999475479126E-002	-3.237727098166943E-003
9.199999272823334E-002	-3.217397024855018E-003
9.099999070167542E-002	-3.197203390300274E-003
8.999999612569809E-002	-3.177153179422021E-003
8.899999409914017E-002	-3.157252911478281E-003
8.799999207258224E-002	-3.137508407235146E-003
8.699999749660492E-002	-3.117925254628062E-003
8.599999547004700E-002	-3.098508110269904E-003
8.499999344348907E-002	-3.079261397942901E-003
8.399999141693115E-002	-3.060189308598638E-003
8.299999684095383E-002	-3.041295101866126E-003
8.199999481439590E-002	-3.022582037374377E-003
8.099999278783798E-002	-3.004052676260471E-003
7.999999076128006E-002	-2.985709579661489E-003
7.899999618530273E-002	-2.967554610222578E-003
7.799999415874481E-002	-2.949589630588889E-003
7.699999213218689E-002	-2.931816037744284E-003
7.599999010562897E-002	-2.914234763011336E-003
7.499999552965164E-002	-2.896846970543265E-003
7.399999350309372E-002	-2.879653126001358E-003
7.299999147653580E-002	-2.862653229385614E-003
7.199999690055847E-002	-2.845847979187965E-003
7.099999487400055E-002	-2.829237142577767E-003
6.999999284744263E-002	-2.812820253893733E-003
6.899999082088470E-002	-2.796597080305219E-003
6.799999624490738E-002	-2.780566690489650E-003
6.699999421834946E-002	-2.764728851616383E-003
6.599999219179153E-002	-2.749082399532199E-003
6.499999016523361E-002	-2.733626402914524E-003
6.399999558925629E-002	-2.718359464779496E-003
6.299999356269836E-002	-2.703280420973897E-003
6.199999526143074E-002	-2.688388107344508E-003
6.099999323487282E-002	-2.673680894076824E-003
5.999999493360519E-002	-2.659157151356339E-003
5.899999290704727E-002	-2.644815482199192E-003
5.799999460577965E-002	-2.630654023960233E-003
5.699999257922173E-002	-2.616671146824956E-003
5.599999427795410E-002	-2.602864988148212E-003
5.499999225139618E-002	-2.589233452454209E-003
5.399999395012856E-002	-2.575774909928441E-003
5.299999192357063E-002	-2.562487265095115E-003
5.199999362230301E-002	-2.549368655309081E-003
5.099999159574509E-002	-2.536416985094547E-003
4.999999329447746E-002	-2.523630158975720E-003
4.899999499320984E-002	-2.511006314307451E-003
4.799999296665192E-002	-2.498543122783303E-003
4.699999466538429E-002	-2.486238488927484E-003
4.599999263882637E-002	-2.474090550094843E-003
4.499999433755875E-002	-2.462096977978945E-003
4.399999231100082E-002	-2.450255677103996E-003
4.299999400973320E-002	-2.438564551994205E-003
4.199999198317528E-002	-2.427021740004420E-003
4.099999368190765E-002	-2.415624679997563E-003
3.999999165534973E-002	-2.404371509328485E-003
3.899999335408211E-002	-2.393260132521391E-003
3.799999132752419E-002	-2.382288454100490E-003
3.699999302625656E-002	-2.371454378589988E-003
3.599999472498894E-002	-2.360755577683449E-003
3.499999269843102E-002	-2.350190421566367E-003
3.399999439716339E-002	-2.339756814762950E-003
3.299999237060547E-002	-2.329452428966761E-003
3.199999406933784E-002	-2.319275634363294E-003
3.099999390542507E-002	-2.309224102646112E-003
2.999999374151230E-002	-2.299296204000711E-003
2.899999357759953E-002	-2.289489610120654E-003
2.799999341368675E-002	-2.279802691191435E-003
2.699999324977398E-002	-2.270233584567904E-003
2.599999308586121E-002	-2.260780194774270E-003
2.499999292194843E-002	-2.251440891996026E-003
2.399999275803566E-002	-2.242213580757380E-003
2.299999259412289E-002	-2.233096631243825E-003
2.199999243021011E-002	-2.224088413640857E-003
2.099999226629734E-002	-2.215186832472682E-003
1.999999210238457E-002	-2.206390257924795E-003
1.899999193847179E-002	-2.197697293013334E-003
1.799999363720417E-002	-2.189105842262506E-003
1.699999347329140E-002	-2.180614275857806E-003
1.599999330937862E-002	-2.172221429646015E-003
1.499999314546585E-002	-2.163925208151340E-003
1.399999298155308E-002	-2.155723981559277E-003
1.299999281764030E-002	-2.147616818547249E-003
1.199999265372753E-002	-2.139601390808821E-003
1.099999248981476E-002	-2.131676767021418E-003
9.999992325901985E-003	-2.123841317370534E-003
8.999993093311787E-003	-2.116093412041664E-003
7.999992929399014E-003	-2.108431654050946E-003
6.999992765486240E-003	-2.100854879245162E-003
5.999992601573467E-003	-2.093361690640450E-003
4.999992437660694E-003	-2.085950225591660E-003
3.999992739409208E-003	-2.078619785606861E-003
2.999992575496435E-003	-2.071368740871549E-003
1.999992644414306E-003	-2.064195694401860E-003
9.999925969168544E-004	-2.057099714875221E-003
-7.450580596923828E-009	-2.050079172477126E-003
-1.000007498078048E-003	-2.043133135885000E-003
-2.000007545575500E-003	-2.036260208114982E-003
-3.000007476657629E-003	-2.029459457844496E-003
-4.000007640570402E-003	-2.022729488089681E-003
-5.000007338821888E-003	-2.016069134697318E-003
-6.000007502734661E-003	-2.009477466344833E-003
-7.000007666647434E-003	-2.002953318879008E-003
-8.000007830560207E-003	-1.996495528146625E-003
-9.000007994472981E-003	-1.990103162825108E-003
-1.000000722706318E-002	-1.983775291591883E-003
-1.100000739097595E-002	-1.977510517463088E-003
-1.200000755488873E-002	-1.971308141946793E-003
-1.300000771880150E-002	-1.965167233720422E-003
-1.400000788271427E-002	-1.959086628630757E-003
-1.500000804662704E-002	-1.953065395355225E-003
-1.600000821053982E-002	-1.947102602571249E-003
-1.700000837445259E-002	-1.941197551786900E-003
-1.800000853836536E-002	-1.935349195264280E-003
-1.900000683963299E-002	-1.929556601680815E-003
-2.000000700354576E-002	-1.923818956129253E-003
-2.100000716745853E-002	-1.918135443702340E-003
-2.200000733137131E-002	-1.912505365908146E-003
-2.300000749528408E-002	-1.906927675008774E-003
-2.400000765919685E-002	-1.901401672512293E-003
-2.500000782310963E-002	-1.895926543511450E-003
-2.600000798702240E-002	-1.890501589514315E-003
-2.700000815093517E-002	-1.885125995613635E-003
-2.800000831484795E-002	-1.879799179732800E-003
-2.900000847876072E-002	-1.874520210549235E-003
-3.000000864267349E-002	-1.869288389571011E-003
-3.100000880658627E-002	-1.864103134721518E-003
-3.200000897049904E-002	-1.858963747508824E-003
-3.300000727176666E-002	-1.853869413025677E-003
-3.400000929832459E-002	-1.848819665610790E-003
-3.500000759959221E-002	-1.843813806772232E-003
-3.600000962615013E-002	-1.838851138018072E-003
-3.700000792741776E-002	-1.833930960856378E-003
-3.800000622868538E-002	-1.829052926041186E-003
-3.900000825524330E-002	-1.824216218665242E-003
-4.000000655651093E-002	-1.819420256651938E-003
-4.100000858306885E-002	-1.814664457924664E-003
-4.200000688433647E-002	-1.809948473237455E-003
-4.300000891089439E-002	-1.805271487683058E-003
-4.400000721216202E-002	-1.800633035600185E-003
-4.500000923871994E-002	-1.796032534912229E-003
-4.600000753998756E-002	-1.791469636373222E-003
-4.700000956654549E-002	-1.786943641491234E-003
-4.800000786781311E-002	-1.782454084604979E-003
-4.900000989437103E-002	-1.778000500053167E-003
-5.000000819563866E-002	-1.773582305759192E-003
-5.100000649690628E-002	-1.769199152477086E-003
-5.200000852346420E-002	-1.764850574545562E-003
-5.300000682473183E-002	-1.760535989888012E-003
-5.400000885128975E-002	-1.756254932843149E-003
-5.500000715255737E-002	-1.752007170580328E-003
-5.600000917911530E-002	-1.747792004607618E-003
-5.700000748038292E-002	-1.743609085679054E-003
-5.800000950694084E-002	-1.739458064548671E-003
-5.900000780820847E-002	-1.735338475555182E-003
-6.000000983476639E-002	-1.731249969452620E-003
-6.100000813603401E-002	-1.727192080579698E-003
-6.200001016259193E-002	-1.723164343275130E-003
-6.300000846385956E-002	-1.719166524708271E-003
-6.400001049041748E-002	-1.715198042802513E-003
-6.500000506639481E-002	-1.711258781142533E-003
-6.600000709295273E-002	-1.707348157651722E-003
-6.700000911951065E-002	-1.703465939499438E-003
-6.800001114606857E-002	-1.699611661024392E-003
-6.900000572204590E-002	-1.695785089395940E-003
-7.000000774860382E-002	-1.691985875368118E-003
-7.100000977516174E-002	-1.688213553279638E-003
-7.200001180171967E-002	-1.684467890299857E-003
-7.300000637769699E-002	-1.680748537182808E-003
-7.400000840425491E-002	-1.677055261097848E-003
-7.500001043081284E-002	-1.673387596383691E-003
-7.600000500679016E-002	-1.669745310209692E-003
-7.700000703334808E-002	-1.666128169745207E-003
-7.800000905990601E-002	-1.662535709328949E-003
-7.900001108646393E-002	-1.658967696130276E-003
-8.000000566244125E-002	-1.655423897318542E-003
-8.100000768899918E-002	-1.651904080063105E-003
-8.200000971555710E-002	-1.648407778702676E-003
-8.300001174211502E-002	-1.644934876821935E-003
-8.400000631809235E-002	-1.641485025174916E-003
-8.500000834465027E-002	-1.638057990930974E-003
-8.600001037120819E-002	-1.634653541259468E-003
-8.700001239776611E-002	-1.631271326914430E-003
-8.800000697374344E-002	-1.627911231480539E-003
-8.900000900030136E-002	-1.624572905711830E-003
-9.000001102685928E-002	-1.621256000362337E-003
-9.100000560283661E-002	-1.617960515432060E-003
-9.200000762939453E-002	-1.614686101675034E-003
-9.300000965595245E-002	-1.611432409845293E-003
-9.400001168251038E-002	-1.608199323527515E-003
-9.500000625848770E-002	-1.604986726306379E-003
-9.600000828504562E-002	-1.601794152520597E-003
-9.700001031160355E-002	-1.598621602170169E-003
-9.800001233816147E-002	-1.595468726009130E-003
-9.900000691413879E-002	-1.592335291206837E-003
-1.000000089406967E-001	-1.589221181347966E-003
-1.010000109672546E-001	-1.586126163601875E-003
-1.020000055432320E-001	-1.583050121553242E-003
-1.030000075697899E-001	-1.579992589540780E-003
-1.040000095963478E-001	-1.576953683979809E-003
-1.050000116229057E-001	-1.573932939209044E-003
-1.060000061988831E-001	-1.570930355228484E-003
-1.070000082254410E-001	-1.567945699207485E-003
-1.080000102519989E-001	-1.564978738315403E-003
-1.090000122785568E-001	-1.562029239721596E-003
-1.100000068545341E-001	-1.559097203426063E-003
-1.110000088810921E-001	-1.556182280182838E-003
-1.120000109076500E-001	-1.553284469991922E-003
-1.130000054836273E-001	-1.550403423607349E-003
-1.140000075101852E-001	-1.547539024613798E-003
-1.150000095367432E-001	-1.544691040180624E-003
-1.160000115633011E-001	-1.541859586723149E-003
-1.170000061392784E-001	-1.539044198580086E-003
-1.180000081658363E-001	-1.536244759336114E-003
-1.190000101923943E-001	-1.533461268991232E-003
-1.200000122189522E-001	-1.530693378299475E-003
-1.210000067949295E-001	-1.527941087260842E-003
-1.220000088214874E-001	-1.525204163044691E-003
-1.230000108480453E-001	-1.522482489235699E-003
-1.240000128746033E-001	-1.519775949418545E-003
-1.250000149011612E-001	-1.517084310762584E-003
-1.260000020265579E-001	-1.514407573267818E-003
-1.270000040531158E-001	-1.511745387688279E-003
-1.280000060796738E-001	-1.509097754023969E-003
-1.290000081062317E-001	-1.506464555859566E-003
-1.300000101327896E-001	-1.503845560364425E-003
-1.310000121593475E-001	-1.501240651123226E-003
-1.320000141859055E-001	-1.498649828135967E-003
-1.330000162124634E-001	-1.496072742156684E-003
-1.340000033378601E-001	-1.493509509600699E-003
-1.350000053644180E-001	-1.490959781222045E-003
-1.360000073909760E-001	-1.488423557020724E-003
-1.370000094175339E-001	-1.485900720581412E-003
-1.380000114440918E-001	-1.483391039073467E-003
-1.390000134706497E-001	-1.480894512496889E-003
-1.400000154972076E-001	-1.478411024436355E-003
-1.410000026226044E-001	-1.475940342061222E-003
-1.420000046491623E-001	-1.473482465371490E-003
-1.430000066757202E-001	-1.471037277951837E-003
-1.440000087022781E-001	-1.468604546971619E-003
-1.450000107288361E-001	-1.466184272430837E-003
-1.460000127553940E-001	-1.463776337914169E-003
-1.470000147819519E-001	-1.461380627006292E-003
-1.480000168085098E-001	-1.458996906876564E-003
-1.490000039339066E-001	-1.456625293940306E-003
-1.500000059604645E-001	-1.454265555366874E-003
-1.510000079870224E-001	-1.451917574740946E-003
-1.520000100135803E-001	-1.449581235647202E-003
-1.530000120401382E-001	-1.447256538085639E-003
-1.540000140666962E-001	-1.444943365640938E-003
-1.550000160932541E-001	-1.442641485482454E-003
-1.560000032186508E-001	-1.440351014025509E-003
-1.570000052452087E-001	-1.438071718439460E-003
-1.580000072717667E-001	-1.435803482308984E-003
-1.590000092983246E-001	-1.433546305634081E-003
-1.600000113248825E-001	-1.431299955584109E-003
-1.610000133514404E-001	-1.429064548574388E-003
-1.620000153779984E-001	-1.426839735358953E-003
-1.630000025033951E-001	-1.424625748768449E-003
-1.640000045299530E-001	-1.422422239556909E-003
-1.650000065565109E-001	-1.420229207724333E-003
-1.660000085830688E-001	-1.418046536855400E-003
-1.670000106096268E-001	-1.415874110534787E-003
-1.680000126361847E-001	-1.413712045177817E-003
-1.690000146627426E-001	-1.411560107953846E-003
-1.700000166893005E-001	-1.409418182447553E-003
-1.710000038146973E-001	-1.407286268658936E-003
-1.720000058412552E-001	-1.405164133757353E-003
-1.730000078678131E-001	-1.403051894158125E-003
-1.740000098943710E-001	-1.400949433445930E-003
-1.750000119209290E-001	-1.398856635205448E-003
-1.760000139474869E-001	-1.396773383021355E-003
-1.770000159740448E-001	-1.394699676893651E-003
-1.780000030994415E-001	-1.392635400407016E-003
-1.790000051259995E-001	-1.390580553561449E-003
-1.800000071525574E-001	-1.388534903526306E-003
-1.810000091791153E-001	-1.386498450301588E-003
-1.820000112056732E-001	-1.384471310302615E-003
-1.830000132322311E-001	-1.382453134283423E-003
-1.840000152587891E-001	-1.380443922244012E-003
-1.850000172853470E-001	-1.378443674184382E-003
-1.860000044107437E-001	-1.376452390104532E-003
-1.870000064373016E-001	-1.374469837173820E-003
-1.880000084638596E-001	-1.372496015392244E-003
-1.890000104904175E-001	-1.370530924759805E-003
-1.900000125169754E-001	-1.368574332445860E-003
-1.910000145435333E-001	-1.366626354865730E-003
-1.920000165700912E-001	-1.364686875604093E-003
-1.930000036954880E-001	-1.362755778245628E-003
-1.940000057220459E-001	-1.360833062790334E-003
-1.950000077486038E-001	-1.358918729238212E-003
-1.960000097751617E-001	-1.357012428343296E-003
-1.970000118017197E-001	-1.355114509351552E-003
-1.980000138282776E-001	-1.353224506601691E-003
-1.990000158548355E-001	-1.351342652924359E-003
-2.000000178813934E-001	-1.349468831904233E-003
-2.010000050067902E-001	-1.347602927125990E-003
-2.020000070333481E-001	-1.345744822174311E-003
-2.030000090599060E-001	-1.343894633464515E-003
-2.040000110864639E-001	-1.342052128165960E-003
-2.050000131130219E-001	-1.340217422693968E-003
-2.060000151395798E-001	-1.338390284217894E-003
-2.070000171661377E-001	-1.336570829153061E-003
-2.080000042915344E-001	-1.334758824668825E-003
-2.090000063180923E-001	-1.332954387180507E-003
-2.100000083446503E-001	-1.331157400272787E-003
-2.110000103712082E-001	-1.329367747530341E-003
-2.120000123977661E-001	-1.327585545368493E-003
-2.130000144243240E-001	-1.325810560956597E-003
-2.140000164508820E-001	-1.324042794294655E-003
-2.150000035762787E-001	-1.322282128967345E-003
-2.160000056028366E-001	-1.320528797805309E-003
-2.170000076293945E-001	-1.318782451562583E-003
-2.180000096559525E-001	-1.317043090239167E-003
-2.190000116825104E-001	-1.315310713835061E-003
-2.200000137090683E-001	-1.313585438765585E-003
-2.210000157356262E-001	-1.311866915784776E-003
-2.220000177621841E-001	-1.310155261307955E-003
-2.230000048875809E-001	-1.308450475335121E-003
-2.240000069141388E-001	-1.306752325035632E-003
-2.250000089406967E-001	-1.305061043240130E-003
-2.260000109672546E-001	-1.303376280702651E-003
-2.270000129938126E-001	-1.301698270253837E-003
-2.280000150203705E-001	-1.300026779063046E-003
-2.290000170469284E-001	-1.298361807130277E-003
-2.300000041723251E-001	-1.296703238040209E-003
-2.310000061988831E-001	-1.295051304623485E-003
-2.320000082254410E-001	-1.293405657634139E-003
-2.330000102519989E-001	-1.291766413487494E-003
-2.340000122785568E-001	-1.290133455768228E-003
-2.350000143051147E-001	-1.288506784476340E-003
-2.360000163316727E-001	-1.286886399611831E-003
-2.370000183582306E-001	-1.285272184759378E-003
-2.380000054836273E-001	-1.283664023503661E-003
-2.390000075101852E-001	-1.282062148675323E-003
-2.400000095367432E-001	-1.280466211028397E-003
-2.410000115633011E-001	-1.278876443393528E-003
-2.420000135898590E-001	-1.277292612940073E-003
-2.430000156164169E-001	-1.275714719668031E-003
-2.440000176429749E-001	-1.274142763577402E-003
-2.450000047683716E-001	-1.272576744668186E-003
-2.460000067949295E-001	-1.271016546525061E-003
-2.470000088214874E-001	-1.269462169148028E-003
-2.480000108480453E-001	-1.267913496121764E-003
-2.490000128746033E-001	-1.266370643861592E-003
-2.500000000000000E-001	-1.264833495952189E-003
-2.510000169277191E-001	-1.263301935978234E-003
-2.520000040531158E-001	-1.261776080355048E-003
-2.530000209808350E-001	-1.260255812667310E-003
-2.540000081062317E-001	-1.258741132915020E-003
-2.550000250339508E-001	-1.257231924682856E-003
-2.560000121593475E-001	-1.255728187970817E-003
-2.569999992847443E-001	-1.254230039194226E-003
-2.580000162124634E-001	-1.252737129107118E-003
-2.590000033378601E-001	-1.251249806955457E-003
-2.600000202655792E-001	-1.249767723493278E-003
-2.610000073909760E-001	-1.248290995135903E-003
-2.620000243186951E-001	-1.246819621883333E-003
-2.630000114440918E-001	-1.245353370904922E-003
-2.639999985694885E-001	-1.243892475031316E-003
-2.650000154972076E-001	-1.242436817847192E-003
-2.660000026226044E-001	-1.240986166521907E-003
-2.670000195503235E-001	-1.239540753886104E-003
-2.680000066757202E-001	-1.238100463524461E-003
-2.690000236034393E-001	-1.236665295436978E-003
-2.700000107288361E-001	-1.235235016793013E-003
-2.709999978542328E-001	-1.233809860423207E-003
-2.720000147819519E-001	-1.232389709912241E-003
-2.730000019073486E-001	-1.230974448844790E-003
-2.740000188350677E-001	-1.229564193636179E-003
-2.750000059604645E-001	-1.228158711455762E-003
-2.760000228881836E-001	-1.226758235134184E-003
-2.770000100135803E-001	-1.225362531840801E-003
-2.779999971389771E-001	-1.223971717990935E-003
-2.790000140666962E-001	-1.222585560753942E-003
-2.800000011920929E-001	-1.221204292960465E-003
-2.810000181198120E-001	-1.219827681779861E-003
-2.820000052452087E-001	-1.218455727212131E-003
-2.830000221729279E-001	-1.217088545672596E-003
-2.840000092983246E-001	-1.215726020745933E-003
-2.850000262260437E-001	-1.214368036016822E-003
-2.860000133514404E-001	-1.213014707900584E-003
-2.870000004768372E-001	-1.211665919981897E-003
-2.880000174045563E-001	-1.210321672260761E-003
-2.890000045299530E-001	-1.208981964737177E-003
-2.900000214576721E-001	-1.207646680995822E-003
-2.910000085830688E-001	-1.206315937452018E-003
-2.920000255107880E-001	-1.204989617690444E-003
-2.930000126361847E-001	-1.203667721711099E-003
-2.939999997615814E-001	-1.202350249513984E-003
-2.950000166893005E-001	-1.201037084683776E-003
-2.960000038146973E-001	-1.199728343635798E-003
-2.970000207424164E-001	-1.198423793539405E-003
-2.980000078678131E-001	-1.197123667225242E-003
-2.990000247955322E-001	-1.195827731862664E-003
-3.000000119209290E-001	-1.194536103866994E-003
-2.990000247955322E-001	-1.193248550407588E-003
-2.980000078678131E-001	-1.191965304315090E-003
-2.970000207424164E-001	-1.190686249174178E-003
-2.960000038146973E-001	-1.189411268569529E-003
-2.950000166893005E-001	-1.188140478916466E-003
-2.939999997615814E-001	-1.186873880214989E-003
-2.930000126361847E-001	-1.185611239634454E-003
-2.920000255107880E-001	-1.184352790005505E-003
-2.910000085830688E-001	-1.183098298497498E-003
-2.900000214576721E-001	-1.181847765110433E-003
-2.890000045299530E-001	-1.180601306259632E-003
-2.880000174045563E-001	-1.179358921945095E-003
-2.870000004768372E-001	-1.178120379336178E-003
-2.860000133514404E-001	-1.176885794848204E-003
-2.850000262260437E-001	-1.175655052065849E-003
-2.840000092983246E-001	-1.174428267404437E-003
-2.830000221729279E-001	-1.173205440863967E-003
-2.820000052452087E-001	-1.171986339613795E-003
-2.810000181198120E-001	-1.170771080069244E-003
-2.800000011920929E-001	-1.169559662230313E-003
-2.790000140666962E-001	-1.168352086097002E-003
-2.779999971389771E-001	-1.167148235253990E-003
-2.770000100135803E-001	-1.165948109701276E-003
-2.760000228881836E-001	-1.164751825854182E-003
-2.750000059604645E-001	-1.163559150882065E-003
-2.740000188350677E-001	-1.162370201200247E-003
-2.730000019073486E-001	-1.161184860393405E-003
-2.720000147819519E-001	-1.160003244876862E-003
-2.709999978542328E-001	-1.158825238235295E-003
-2.700000107288361E-001	-1.157650840468705E-003
-2.690000236034393E-001	-1.156480051577091E-003
-2.680000066757202E-001	-1.155312871560454E-003
-2.670000195503235E-001	-1.154149184003472E-003
-2.660000026226044E-001	-1.152989105321467E-003
-2.650000154972076E-001	-1.151832519099116E-003
-2.639999985694885E-001	-1.150679425336421E-003
-2.630000114440918E-001	-1.149529824033380E-003
-2.620000243186951E-001	-1.148383715189993E-003
-2.610000073909760E-001	-1.147241098806262E-003
-2.600000202655792E-001	-1.146101858466864E-003
-2.590000033378601E-001	-1.144966110587120E-003
-2.580000162124634E-001	-1.143833622336388E-003
-2.569999992847443E-001	-1.142704626545310E-003
-2.560000121593475E-001	-1.141579006798565E-003
-2.550000250339508E-001	-1.140456646680832E-003
-2.540000081062317E-001	-1.139337662607431E-003
-2.530000209808350E-001	-1.138222054578364E-003
-2.520000040531158E-001	-1.137109706178308E-003
-2.510000169277191E-001	-1.136000617407262E-003
-2.500000000000000E-001	-1.134894788265228E-003
-2.490000128746033E-001	-1.133792218752205E-003
-2.480000108480453E-001	-1.132692908868194E-003
-2.470000088214874E-001	-1.131596858613193E-003
-2.460000067949295E-001	-1.130503951571882E-003
-2.450000047683716E-001	-1.129414187744260E-003
-2.440000176429749E-001	-1.128327683545649E-003
-2.430000156164169E-001	-1.127244322560728E-003
-2.420000135898590E-001	-1.126164104789495E-003
-2.410000115633011E-001	-1.125086913816631E-003
-2.400000095367432E-001	-1.124012982472777E-003
-2.390000075101852E-001	-1.122941961511970E-003
-2.380000054836273E-001	-1.121874200180173E-003
-2.370000183582306E-001	-1.120809349231422E-003
-2.360000163316727E-001	-1.119747641496360E-003
-2.350000143051147E-001	-1.118688960559666E-003
-2.340000122785568E-001	-1.117633306421340E-003
-2.330000102519989E-001	-1.116580679081380E-003
-2.320000082254410E-001	-1.115530962124467E-003
-2.310000061988831E-001	-1.114484271965921E-003
-2.300000041723251E-001	-1.113440608605742E-003
-2.290000170469284E-001	-1.112399739213288E-003
-2.280000150203705E-001	-1.111361896619201E-003
-2.270000129938126E-001	-1.110326964408159E-003
-2.260000109672546E-001	-1.109294942580163E-003
-2.250000089406967E-001	-1.108265831135213E-003
-2.240000069141388E-001	-1.107239630073309E-003
-2.230000048875809E-001	-1.106216222979128E-003
-2.220000177621841E-001	-1.105195726267993E-003
-2.210000157356262E-001	-1.104178023524582E-003
-2.200000137090683E-001	-1.103163114748895E-003
-2.190000116825104E-001	-1.102151116356254E-003
-2.180000096559525E-001	-1.101141795516014E-003
-2.170000076293945E-001	-1.100135385058820E-003
-2.160000056028366E-001	-1.099131652154028E-003
-2.150000035762787E-001	-1.098130713216960E-003
-2.140000164508820E-001	-1.097132568247616E-003
-2.130000144243240E-001	-1.096137100830674E-003
-2.120000123977661E-001	-1.095144310966134E-003
-2.110000103712082E-001	-1.094154315069318E-003
-2.100000083446503E-001	-1.093166880309582E-003
-2.090000063180923E-001	-1.092182239517570E-003
-2.080000042915344E-001	-1.091200276277959E-003
-2.070000171661377E-001	-1.090220990590751E-003
-2.060000151395798E-001	-1.089244266040623E-003
-2.050000131130219E-001	-1.088270219042897E-003
-2.040000110864639E-001	-1.087298733182251E-003
-2.030000090599060E-001	-1.086329924874008E-003
-2.020000070333481E-001	-1.085363677702844E-003
-2.010000050067902E-001	-1.084400108084083E-003
-2.000000178813934E-001	-1.083438983187079E-003
-1.990000158548355E-001	-1.082480535842478E-003
-1.980000138282776E-001	-1.081524533219635E-003
-1.970000118017197E-001	-1.080571091733873E-003
-1.960000097751617E-001	-1.079620211385190E-003
-1.950000077486038E-001	-1.078671892173588E-003
-1.940000057220459E-001	-1.077726017683744E-003
-1.930000036954880E-001	-1.076782587915659E-003
-1.920000165700912E-001	-1.075841719284654E-003
-1.910000145435333E-001	-1.074903295375407E-003
-1.900000125169754E-001	-1.073967316187918E-003
-1.890000104904175E-001	-1.073033781722188E-003
-1.880000084638596E-001	-1.072102575562894E-003
-1.870000064373016E-001	-1.071173930540681E-003
-1.860000044107437E-001	-1.070247730240226E-003
-1.850000172853470E-001	-1.069323858246207E-003
-1.840000152587891E-001	-1.068402314558625E-003
-1.830000132322311E-001	-1.067483215592802E-003
-1.820000112056732E-001	-1.066566561348736E-003
-1.810000091791153E-001	-1.065652118995786E-003
-1.800000071525574E-001	-1.064740121364594E-003
-1.790000051259995E-001	-1.063830452039838E-003
-1.780000030994415E-001	-1.062922994606197E-003
-1.770000159740448E-001	-1.062017981894314E-003
-1.760000139474869E-001	-1.061115181073546E-003
-1.750000119209290E-001	-1.060214824974537E-003
-1.740000098943710E-001	-1.059316564351320E-003
-1.730000078678131E-001	-1.058420632034540E-003
-1.720000058412552E-001	-1.057527028024197E-003
-1.710000038146973E-001	-1.056635635904968E-003
-1.700000166893005E-001	-1.055746455676854E-003
-1.690000146627426E-001	-1.054859487339854E-003
-1.680000126361847E-001	-1.053974847309291E-003
-1.670000106096268E-001	-1.053092302754521E-003
-1.660000085830688E-001	-1.052211970090866E-003
-1.650000065565109E-001	-1.051333849318326E-003
-1.640000045299530E-001	-1.050457940436900E-003
-1.630000025033951E-001	-1.049584127031267E-003
-1.620000153779984E-001	-1.048712525516748E-003
-1.610000133514404E-001	-1.047843019478023E-003
-1.600000113248825E-001	-1.046975725330412E-003
-1.590000092983246E-001	-1.046110526658595E-003
-1.580000072717667E-001	-1.045247423462570E-003
-1.570000052452087E-001	-1.044386415742338E-003
-1.560000032186508E-001	-1.043527503497899E-003
-1.550000160932541E-001	-1.042670570313931E-003
-1.540000140666962E-001	-1.041815849021077E-003
-1.530000120401382E-001	-1.040963106788695E-003
-1.520000100135803E-001	-1.040112460032105E-003
-1.510000079870224E-001	-1.039263908751309E-003
-1.500000059604645E-001	-1.038417336530983E-003
-1.490000039339066E-001	-1.037572743371129E-003
-1.480000168085098E-001	-1.036730245687068E-003
-1.470000147819519E-001	-1.035889610648155E-003
-1.460000127553940E-001	-1.035051071085036E-003
-1.450000107288361E-001	-1.034214510582387E-003
-1.440000087022781E-001	-1.033379812724888E-003
-1.430000066757202E-001	-1.032547210343182E-003
-1.420000046491623E-001	-1.031716470606625E-003
-1.410000026226044E-001	-1.030887709930539E-003
-1.400000154972076E-001	-1.030060811899602E-003
-1.390000134706497E-001	-1.029235892929137E-003
-1.380000114440918E-001	-1.028412836603820E-003
-1.370000094175339E-001	-1.027591642923653E-003
-1.360000073909760E-001	-1.026772311888635E-003
-1.350000053644180E-001	-1.025954959914088E-003
-1.340000033378601E-001	-1.025139354169369E-003
-1.330000162124634E-001	-1.024325611069798E-003
-1.320000141859055E-001	-1.023513730615377E-003
-1.310000121593475E-001	-1.022703596390784E-003
-1.300000101327896E-001	-1.021895324811339E-003
-1.290000081062317E-001	-1.021088915877044E-003
-1.280000060796738E-001	-1.020284253172576E-003
-1.270000040531158E-001	-1.019481336697936E-003
-1.260000020265579E-001	-1.018680166453123E-003
-1.250000149011612E-001	-1.017880742438138E-003
-1.240000128746033E-001	-1.017083064652979E-003
-1.230000108480453E-001	-1.016287133097649E-003
-1.220000088214874E-001	-1.015492831356823E-003
-1.210000067949295E-001	-1.014700392261148E-003
-1.200000122189522E-001	-1.013909466564655E-003
-1.190000101923943E-001	-1.013120287097991E-003
-1.180000081658363E-001	-1.012332737445831E-003
-1.170000061392784E-001	-1.011546817608178E-003
-1.160000115633011E-001	-1.010762527585030E-003
-1.150000095367432E-001	-1.009979867376387E-003
-1.140000075101852E-001	-1.009198836982250E-003
-1.130000054836273E-001	-1.008419319987297E-003
-1.120000109076500E-001	-1.007641432806849E-003
-1.110000088810921E-001	-1.006865059025586E-003
-1.100000068545341E-001	-1.006090198643506E-003
-1.090000122785568E-001	-1.005316851660609E-003
-1.080000102519989E-001	-1.004545018076897E-003
-1.070000082254410E-001	-1.003774697892368E-003
-1.060000061988831E-001	-1.003005774691701E-003
-1.050000116229057E-001	-1.002238364890218E-003
-1.040000095963478E-001	-1.001472468487918E-003
-1.030000075697899E-001	-1.000707852654159E-003
-1.020000055432320E-001	-9.999446338042617E-004
-1.010000109672546E-001	-9.991828119382262E-004
-1.000000089406967E-001	-9.984223870560527E-004
-9.900000691413879E-002	-9.976632427424192E-004
-9.800001233816147E-002	-9.969054954126477E-004
-9.700001031160355E-002	-9.961489122360945E-004
-9.600000828504562E-002	-9.953936096280813E-004
-9.500000625848770E-002	-9.946397040039301E-004
-9.400001168251038E-002	-9.938868461176753E-004
-9.300000965595245E-002	-9.931352687999606E-004
-9.200000762939453E-002	-9.923848556354642E-004
-9.100000560283661E-002	-9.916356066241860E-004
-9.000001102685928E-002	-9.908875217661262E-004
-8.900000900030136E-002	-9.901403682306409E-004
-8.800000697374344E-002	-9.893944952636957E-004
-8.700001239776611E-002	-9.886495536193252E-004
-8.600001037120819E-002	-9.879055432975292E-004
-8.500000834465027E-002	-9.871625807136297E-004
-8.400000631809235E-002	-9.864206658676267E-004
-8.300001174211502E-002	-9.856795659288764E-004
-8.200000971555710E-002	-9.849393973127007E-004
-8.100000768899918E-002	-9.842000436037779E-004
-8.000000566244125E-002	-9.834615048021078E-004
-7.900001108646393E-002	-9.827237809076905E-004
-7.800000905990601E-002	-9.819867555052042E-004
-7.700000703334808E-002	-9.812504285946488E-004
-7.600000500679016E-002	-9.805148001760244E-004
-7.500001043081284E-002	-9.797797538340092E-004
-7.400000840425491E-002	-9.790452895686030E-004
-7.300000637769699E-002	-9.783114073798060E-004
-7.200001180171967E-002	-9.775779908522964E-004
-7.100000977516174E-002	-9.768449235707521E-004
-7.000000774860382E-002	-9.761123801581562E-004
-6.900000572204590E-002	-9.753801277838647E-004
-6.800001114606857E-002	-9.746481664478779E-004
-6.700000911951065E-002	-9.739164379425347E-004
-6.600000709295273E-002	-9.731849422678351E-004
-6.500000506639481E-002	-9.724535048007965E-004
-6.400001049041748E-002	-9.717221255414188E-004
-6.300000846385956E-002	-9.709907462820411E-004
-6.200001016259193E-002	-9.702593670226634E-004
-6.100000813603401E-002	-9.695278131403029E-004
-6.000000983476639E-002	-9.687960264272988E-004
-5.900000780820847E-002	-9.680640068836510E-004
-5.800000950694084E-002	-9.673316380940378E-004
-5.700000748038292E-002	-9.665988036431372E-004
-5.600000917911530E-002	-9.658655035309494E-004
-5.500000715255737E-002	-9.651316213421524E-004
-5.400000885128975E-002	-9.643970406614244E-004
-5.300000682473183E-002	-9.636617614887655E-004
-5.200000852346420E-002	-9.629255509935319E-004
-5.100000649690628E-002	-9.621884091757238E-004
-5.000000819563866E-002	-9.614502778276801E-004
-4.900000989437103E-002	-9.607109241187572E-004
-4.800000786781311E-002	-9.599703480489552E-004
-4.700000956654549E-002	-9.592284332029521E-004
-4.600000753998756E-002	-9.584850049577653E-004
-4.500000923871994E-002	-9.577399468980730E-004
-4.400000721216202E-002	-9.569932008162141E-004
-4.300000891089439E-002	-9.562445920892060E-004
-4.200000688433647E-002	-9.554939460940659E-004
-4.100000858306885E-002	-9.547412628307939E-004
-4.000000655651093E-002	-9.539862512610853E-004
-3.900000825524330E-002	-9.532288531772792E-004
-3.800000622868538E-002	-9.524688357487321E-004
-3.700000792741776E-002	-9.517061407677829E-004
-3.600000962615013E-002	-9.509404771961272E-004
-3.500000759959221E-002	-9.501717868261039E-004
-3.400000929832459E-002	-9.493998368270695E-004
-3.300000727176666E-002	-9.486244525760412E-004
-3.200000897049904E-002	-9.478454012423754E-004
-3.100000880658627E-002	-9.470625664107502E-004
-3.000000864267349E-002	-9.462756570428610E-004
-2.900000847876072E-002	-9.454844403080642E-004
-2.800000831484795E-002	-9.446887997910380E-004
-2.700000815093517E-002	-9.438884444534779E-004
-2.600000798702240E-002	-9.430830832570791E-004
-2.500000782310963E-002	-9.422724833711982E-004
-2.400000765919685E-002	-9.414564701728523E-004
-2.300000749528408E-002	-9.406346362084150E-004
-2.200000733137131E-002	-9.398068068549037E-004
-2.100000716745853E-002	-9.389726328663528E-004
-2.000000700354576E-002	-9.381318232044578E-004
-1.900000683963299E-002	-9.372840868309140E-004
-1.800000853836536E-002	-9.364290162920952E-004
-1.700000837445259E-002	-9.355663787573576E-004
-1.600000821053982E-002	-9.346957085654140E-004
-1.500000804662704E-002	-9.338167146779597E-004
-1.400000788271427E-002	-9.329289896413684E-004
-1.300000771880150E-002	-9.320320677943528E-004
-1.200000755488873E-002	-9.311256580986083E-004
-1.100000739097595E-002	-9.302092366851866E-004
-1.000000722706318E-002	-9.292823961004615E-004
-9.000007994472981E-003	-9.283446706831455E-004
-8.000007830560207E-003	-9.273955365642905E-004
-7.000007666647434E-003	-9.264345862902701E-004
-6.000007502734661E-003	-9.254611795768142E-004
-5.000007338821888E-003	-9.244748507626355E-004
-4.000007640570402E-003	-9.234750177711248E-004
-3.000007476657629E-003	-9.224610985256732E-004
-2.000007545575500E-003	-9.214324527420104E-004
-1.000007498078048E-003	-9.203885565511882E-004
-7.450580596923828E-009	-9.193285950459540E-004
9.999925969168544E-004	-9.182520443573594E-004
1.999992644414306E-003	-9.171580895781517E-004
2.999992575496435E-003	-9.160460322163999E-004
3.999992739409208E-003	-9.149150573648512E-004
4.999992437660694E-003	-9.137644665315747E-004
5.999992601573467E-003	-9.125934448093176E-004
6.999992765486240E-003	-9.114010026678443E-004
7.999992929399014E-003	-9.101863834075630E-004
8.999993093311787E-003	-9.089485974982381E-004
9.999992325901985E-003	-9.076867136172950E-004
1.099999248981476E-002	-9.063996840268373E-004
1.199999265372753E-002	-9.050865774042904E-004
1.299999281764030E-002	-9.037462295964360E-004
1.399999298155308E-002	-9.023775346577168E-004
1.499999314546585E-002	-9.009793866425753E-004
1.599999330937862E-002	-8.995505049824715E-004
1.699999347329140E-002	-8.980897255241871E-004
1.799999363720417E-002	-8.965957094915211E-004
1.899999193847179E-002	-8.950670599006116E-004
1.999999210238457E-002	-8.935024961829185E-004
2.099999226629734E-002	-8.919004467315972E-004
2.199999243021011E-002	-8.902594563551247E-004
2.299999259412289E-002	-8.885779534466565E-004
2.399999275803566E-002	-8.868543663993478E-004
2.499999292194843E-002	-8.850868907757103E-004
2.599999308586121E-002	-8.832738967612386E-004
2.699999324977398E-002	-8.814134635031223E-004
2.799999341368675E-002	-8.795037865638733E-004
2.899999357759953E-002	-8.775428868830204E-004
2.999999374151230E-002	-8.755286689847708E-004
3.099999390542507E-002	-8.734590956009924E-004
3.199999406933784E-002	-8.713320130482316E-004
3.299999237060547E-002	-8.691450348123908E-004
3.399999439716339E-002	-8.668958325870335E-004
3.499999269843102E-002	-8.645820198580623E-004
3.599999472498894E-002	-8.622010354883969E-004
3.699999302625656E-002	-8.597502601332963E-004
3.799999132752419E-002	-8.572268998250365E-004
3.899999335408211E-002	-8.546282188035548E-004
3.999999165534973E-002	-8.519512484781444E-004
4.099999368190765E-002	-8.491929620504379E-004
4.199999198317528E-002	-8.463500998914242E-004
4.299999400973320E-002	-8.434195769950747E-004
4.399999231100082E-002	-8.403978426940739E-004
4.499999433755875E-002	-8.372814627364278E-004
4.599999263882637E-002	-8.340668282471597E-004
4.699999466538429E-002	-8.307500393129885E-004
4.799999296665192E-002	-8.273273706436157E-004
4.899999499320984E-002	-8.237946312874556E-004
4.999999329447746E-002	-8.201476885005832E-004
5.099999159574509E-002	-8.163822349160910E-004
5.199999362230301E-002	-8.124937303364277E-004
5.299999192357063E-002	-8.084775181487203E-004
5.399999395012856E-002	-8.043288253247738E-004
5.499999225139618E-002	-8.000426460057497E-004
5.599999427795410E-002	-7.956138579174876E-004
5.699999257922173E-002	-7.910371059551835E-004
5.799999460577965E-002	-7.863068603910506E-004
5.899999290704727E-002	-7.814174750819802E-004
5.999999493360519E-002	-7.763630710542202E-004
6.099999323487282E-002	-7.711374782957137E-004
6.199999526143074E-002	-7.657344685867429E-004
6.299999356269836E-002	-7.601475226692855E-004
6.399999558925629E-002	-7.543699466623366E-004
6.499999016523361E-002	-7.483948138542473E-004
6.599999219179153E-002	-7.422150229103863E-004
6.699999421834946E-002	-7.358231232501566E-004
6.799999624490738E-002	-7.292115478776395E-004
6.899999082088470E-002	-7.223724387586117E-004
6.999999284744263E-002	-7.152977632358670E-004
7.099999487400055E-002	-7.079791976138949E-004
7.199999690055847E-002	-7.004080689512193E-004
7.299999147653580E-002	-6.925757043063641E-004
7.399999350309372E-002	-6.844728486612439E-004
7.499999552965164E-002	-6.760903052054346E-004
7.599999010562897E-002	-6.674184114672244E-004
7.699999213218689E-002	-6.584472721442580E-004
7.799999415874481E-002	-6.491667591035366E-004
7.899999618530273E-002	-6.395665113814175E-004
7.999999076128006E-002	-6.296358769759536E-004
8.099999278783798E-002	-6.193637964315712E-004
8.199999481439590E-002	-6.087391520850360E-004
8.299999684095383E-002	-5.977504188194871E-004
8.399999141693115E-002	-5.863858386874199E-004
8.499999344348907E-002	-5.746334209106863E-004
8.599999547004700E-002	-5.624808836728334E-004
8.699999749660492E-002	-5.499156541191041E-004
8.799999207258224E-002	-5.369249847717583E-004
8.899999409914017E-002	-5.234957789070904E-004
8.999999612569809E-002	-5.096148233860731E-004
9.099999070167542E-002	-4.952686140313745E-004
9.199999272823334E-002	-4.804434138350189E-004
9.299999475479126E-002	-4.651252529583871E-004
9.399999678134918E-002	-4.493001033551991E-004
9.499999135732651E-002	-4.329535877332091E-004
9.599999338388443E-002	-4.160712996963412E-004
9.699999541044235E-002	-3.986386000178754E-004
9.799999743700027E-002	-3.806408494710922E-004
9.899999201297760E-002	-3.620631759986281E-004
9.999999403953552E-002	-3.428907075431198E-004
1.009999960660934E-001	-3.231085720472038E-004
1.019999906420708E-001	-3.027017810381949E-004
1.029999926686287E-001	-2.816554915625602E-004
1.039999946951866E-001	-2.599548024591058E-004
1.049999967217445E-001	-2.375849871896207E-004
1.059999912977219E-001	-2.145314501831308E-004
1.069999933242798E-001	-1.907797559397295E-004
1.079999953508377E-001	-1.663157163420692E-004
1.089999973773956E-001	-1.411254052072763E-004
1.099999919533730E-001	-1.151952674263157E-004
1.109999939799309E-001	-8.851211896399036E-005
1.119999960064888E-001	-6.106324144639075E-005
1.129999905824661E-001	-3.283641854068264E-005
1.139999926090240E-001	-3.820038728008512E-006
1.149999946355820E-001	2.599686740722973E-005
1.159999966621399E-001	5.662453622790053E-005
1.169999912381172E-001	8.807240374153480E-005
1.179999932646751E-001	1.203490173793398E-004
1.189999952912331E-001	1.534619659651071E-004
1.199999973177910E-001	1.874177978606895E-004
1.209999918937683E-001	2.222218899987638E-004
1.219999939203262E-001	2.578784478828311E-004
1.229999959468842E-001	2.943903091363609E-004
1.239999979734421E-001	3.317589871585369E-004
1.249999925494194E-001	3.699843946378678E-004
1.259999871253967E-001	4.090649599675089E-004
1.269999891519547E-001	4.489973362069577E-004
1.279999911785126E-001	4.897764883935452E-004
1.289999932050705E-001	5.313954898156226E-004
1.299999952316284E-001	5.738454055972397E-004
1.309999972581863E-001	6.171153509058058E-004
1.319999992847443E-001	6.611922290176153E-004
1.330000013113022E-001	7.060609059408307E-004
1.339999884366989E-001	7.517037447541952E-004
1.349999904632568E-001	7.981010130606592E-004
1.359999924898148E-001	8.452304173260927E-004
1.369999945163727E-001	8.930672192946076E-004
1.379999965429306E-001	9.415842359885573E-004
1.389999985694885E-001	9.907517815008760E-004
1.400000005960464E-001	1.040537375956774E-003
1.409999877214432E-001	1.090906327590346E-003
1.419999897480011E-001	1.141821150667965E-003
1.429999917745590E-001	1.193241798318923E-003
1.439999938011169E-001	1.245125662535429E-003
1.449999958276749E-001	1.297427574172616E-003
1.459999978542328E-001	1.350100035779178E-003
1.469999998807907E-001	1.403093221597373E-003
1.480000019073486E-001	1.456354628317058E-003
1.489999890327454E-001	1.509829889982939E-003
1.499999910593033E-001	1.563462428748608E-003
1.509999930858612E-001	1.617193571291864E-003
1.519999951124191E-001	1.670963014476001E-003
1.529999971389771E-001	1.724708592519164E-003
1.539999991655350E-001	1.778366742655635E-003
1.550000011920929E-001	1.831872388720512E-003
1.559999883174896E-001	1.885159756056964E-003
1.569999903440475E-001	1.938161789439619E-003
1.579999923706055E-001	1.990810967981815E-003
1.589999943971634E-001	2.043039072304964E-003
1.599999964237213E-001	2.094777766615152E-003
1.609999984502792E-001	2.145959297195077E-003
1.620000004768372E-001	2.196515211835504E-003
1.629999876022339E-001	2.246378688141704E-003
1.639999896287918E-001	2.295483136549592E-003
1.649999916553497E-001	2.343762665987015E-003
1.659999936819077E-001	2.391153946518898E-003
1.669999957084656E-001	2.437593881040812E-003
1.679999977350235E-001	2.483022399246693E-003
1.689999997615814E-001	2.527380594983697E-003
1.700000017881393E-001	2.570612356066704E-003
1.709999889135361E-001	2.612664364278317E-003
1.719999909400940E-001	2.653485164046288E-003
1.729999929666519E-001	2.693027257919312E-003
1.739999949932098E-001	2.731245709583163E-003
1.749999970197678E-001	2.768098842352629E-003
1.759999990463257E-001	2.803548704832792E-003
1.770000010728836E-001	2.837560372427106E-003
1.779999881982803E-001	2.870103344321251E-003
1.789999902248383E-001	2.901149913668633E-003
1.799999922513962E-001	2.930676797404885E-003
1.809999942779541E-001	2.958663972094655E-003
1.819999963045120E-001	2.985096070915461E-003
1.829999983310699E-001	3.009960753843188E-003
1.840000003576279E-001	3.033249638974667E-003
1.850000023841858E-001	3.054958535358310E-003
1.859999895095825E-001	3.075086278840899E-003
1.869999915361404E-001	3.093635663390160E-003
1.879999935626984E-001	3.110612742602825E-003
1.889999955892563E-001	3.126027761027217E-003
1.899999976158142E-001	3.139892825856805E-003
1.909999996423721E-001	3.152224468067288E-003
1.920000016689301E-001	3.163041546940804E-003
1.929999887943268E-001	3.172365715727210E-003
1.939999908208847E-001	3.180221654474735E-003
1.949999928474426E-001	3.186635905876756E-003
1.959999948740005E-001	3.191637806594372E-003
1.969999969005585E-001	3.195258555933833E-003
1.979999989271164E-001	3.197531448677182E-003
1.990000009536743E-001	3.198491176590323E-003
1.999999880790710E-001	3.198174294084311E-003
2.009999901056290E-001	3.196618985384703E-003
2.019999921321869E-001	3.193863434717059E-003
2.029999941587448E-001	3.189948387444019E-003
2.039999961853027E-001	3.184914123266935E-003
2.049999982118607E-001	3.178802318871021E-003
2.060000002384186E-001	3.171654883772135E-003
2.070000022649765E-001	3.163514193147421E-003
2.079999893903732E-001	3.154422389343381E-003
2.089999914169312E-001	3.144422313198447E-003
2.099999934434891E-001	3.133556339889765E-003
2.109999954700470E-001	3.121866611763835E-003
2.119999974966049E-001	3.109395038336515E-003
2.129999995231628E-001	3.096182830631733E-003
2.140000015497208E-001	3.082271432504058E-003
2.149999886751175E-001	3.067700890824199E-003
2.159999907016754E-001	3.052511019632220E-003
2.169999927282333E-001	3.036740235984325E-003
2.179999947547913E-001	3.020426956936717E-003
2.189999967813492E-001	3.003608202561736E-003
2.199999988079071E-001	2.986320061609149E-003
2.210000008344650E-001	2.968597924336791E-003
2.220000028610229E-001	2.950475551187992E-003
2.229999899864197E-001	2.931986469775438E-003
2.239999920129776E-001	2.913162345066667E-003
2.249999940395355E-001	2.894034609198570E-003
2.259999960660934E-001	2.874632598832250E-003
2.269999980926514E-001	2.854984952136874E-003
2.280000001192093E-001	2.835119841620326E-003
2.290000021457672E-001	2.815063344314694E-003
2.299999892711639E-001	2.794840605929494E-003
2.309999912977219E-001	2.774476306512952E-003
2.319999933242798E-001	2.753993496298790E-003
2.329999953508377E-001	2.733414294198155E-003
2.339999973773956E-001	2.712759422138333E-003
2.349999994039536E-001	2.692049136385322E-003
2.360000014305115E-001	2.671302529051900E-003
2.370000034570694E-001	2.650537295266986E-003
2.379999905824661E-001	2.629770431667566E-003
2.389999926090240E-001	2.609018236398697E-003
2.399999946355820E-001	2.588295843452215E-003
2.409999966621399E-001	2.567617222666740E-003
2.419999986886978E-001	2.546996111050248E-003
2.430000007152557E-001	2.526444848626852E-003
2.440000027418137E-001	2.505975309759378E-003
2.449999898672104E-001	2.485598204657435E-003
2.459999918937683E-001	2.465324243530631E-003
2.469999939203262E-001	2.445162506774068E-003
2.479999959468842E-001	2.425122307613492E-003
2.489999979734421E-001	2.405211329460144E-003
2.500000000000000E-001	2.385437255725265E-003
2.509999871253967E-001	2.365807304158807E-003
2.520000040531158E-001	2.346327528357506E-003
2.529999911785126E-001	2.327003749087453E-003
2.540000081062317E-001	2.307841554284096E-003
2.549999952316284E-001	2.288845600560308E-003
2.559999823570251E-001	2.270020311698318E-003
2.569999992847443E-001	2.251369180157781E-003
2.579999864101410E-001	2.232896164059639E-003
2.590000033378601E-001	2.214604057371616E-003
2.599999904632568E-001	2.196495654061437E-003
2.610000073909760E-001	2.178573282435536E-003
2.619999945163727E-001	2.160838572308421E-003
2.629999816417694E-001	2.143293619155884E-003
2.639999985694885E-001	2.125939819961786E-003
2.649999856948853E-001	2.108777873218060E-003
2.660000026226044E-001	2.091808710247278E-003
2.669999897480011E-001	2.075033029541373E-003
2.680000066757202E-001	2.058451063930988E-003
2.689999938011169E-001	2.042062813416123E-003
2.700000107288361E-001	2.025868510827422E-003
2.709999978542328E-001	2.009867690503597E-003
2.719999849796295E-001	1.994059653952718E-003
2.730000019073486E-001	1.978444168344140E-003
2.739999890327454E-001	1.963020302355289E-003
2.750000059604645E-001	1.947787241078913E-003
2.759999930858612E-001	1.932743703946471E-003
2.770000100135803E-001	1.917888643220067E-003
2.779999971389771E-001	1.903220661915839E-003
2.789999842643738E-001	1.888738595880568E-003
2.800000011920929E-001	1.874440931715071E-003
2.809999883174896E-001	1.860326039604843E-003
2.820000052452087E-001	1.846392173320055E-003
2.829999923706055E-001	1.832637819461524E-003
2.840000092983246E-001	1.819061231799424E-003
2.849999964237213E-001	1.805660431273282E-003
2.859999835491180E-001	1.792433555237949E-003
2.870000004768372E-001	1.779378741048276E-003
2.879999876022339E-001	1.766494126059115E-003
2.890000045299530E-001	1.753777614794672E-003
2.899999916553497E-001	1.741227111779153E-003
2.910000085830688E-001	1.728840637952089E-003
2.919999957084656E-001	1.716616214253008E-003
2.929999828338623E-001	1.704551745206118E-003
2.939999997615814E-001	1.692645018920302E-003
2.949999868869781E-001	1.680893939919770E-003
2.960000038146973E-001	1.669296412728727E-003
2.969999909400940E-001	1.657850458286703E-003
2.980000078678131E-001	1.646553748287261E-003
2.989999949932098E-001	1.635404303669930E-003
3.000000119209290E-001	1.624400028958917E-003
3.009999990463257E-001	1.613538712263107E-003
3.019999861717224E-001	1.602818258106709E-003
3.030000030994415E-001	1.592236687429249E-003
3.039999902248383E-001	1.581791904754937E-003
3.050000071525574E-001	1.571481814607978E-003
3.059999942779541E-001	1.561304205097258E-003
3.070000112056732E-001	1.551257329992950E-003
3.079999983310699E-001	1.541338977403939E-003
3.089999854564667E-001	1.531547284685075E-003
3.100000023841858E-001	1.521880156360567E-003
3.109999895095825E-001	1.512335613369942E-003
3.120000064373016E-001	1.502911909483373E-003
3.129999935626984E-001	1.493606949225068E-003
3.140000104904175E-001	1.484418869949877E-003
3.149999976158142E-001	1.475345809012651E-003
3.159999847412109E-001	1.466385903768241E-003
3.170000016689301E-001	1.457537407986820E-003
3.179999887943268E-001	1.448798459023237E-003
3.190000057220459E-001	1.440167310647666E-003
3.199999928474426E-001	1.431642216630280E-003
3.210000097751617E-001	1.423221430741251E-003
3.219999969005585E-001	1.414903206750751E-003
3.229999840259552E-001	1.406685914844275E-003
3.240000009536743E-001	1.398567808791995E-003
3.249999880790710E-001	1.390547491610050E-003
3.260000050067902E-001	1.382623100653291E-003
3.269999921321869E-001	1.374793238937855E-003
3.280000090599060E-001	1.367056276649237E-003
3.289999961853027E-001	1.359410700388253E-003
3.299999833106995E-001	1.351855113171041E-003
3.310000002384186E-001	1.344387885183096E-003
3.319999873638153E-001	1.337007503025234E-003
3.330000042915344E-001	1.329712802544236E-003
3.339999914169312E-001	1.322502153925598E-003
3.350000083446503E-001	1.315374276600778E-003
3.359999954700470E-001	1.308327773585916E-003
3.370000123977661E-001	1.301361247897148E-003
3.379999995231628E-001	1.294473651796579E-003
3.389999866485596E-001	1.287663355469704E-003
3.400000035762787E-001	1.280929311178625E-003
3.409999907016754E-001	1.274270238354802E-003
3.420000076293945E-001	1.267684972845018E-003
3.429999947547913E-001	1.261172117665410E-003
3.440000116825104E-001	1.254730741493404E-003
3.449999988079071E-001	1.248359447345138E-003
3.459999859333038E-001	1.242057303898036E-003
3.470000028610229E-001	1.235823146998882E-003
3.479999899864197E-001	1.229655928909779E-003
3.490000069141388E-001	1.223554369062185E-003
3.499999940395355E-001	1.217517652548850E-003
3.510000109672546E-001	1.211544615216553E-003
3.519999980926514E-001	1.205634209327400E-003
3.529999852180481E-001	1.199785619974136E-003
3.540000021457672E-001	1.193997683003545E-003
3.549999892711639E-001	1.188269583508372E-003
3.560000061988831E-001	1.182600273750722E-003
3.569999933242798E-001	1.176988822408021E-003
3.580000102519989E-001	1.171434414573014E-003
3.589999973773956E-001	1.165936118923128E-003
3.599999845027924E-001	1.160493120551109E-003
3.610000014305115E-001	1.155104371719062E-003
3.619999885559082E-001	1.149769290350378E-003
3.630000054836273E-001	1.144486828707159E-003
3.639999926090240E-001	1.139256404712796E-003
3.650000095367432E-001	1.134076970629394E-003
3.659999966621399E-001	1.128947944380343E-003
3.669999837875366E-001	1.123868511058390E-003
3.680000007152557E-001	1.118837855756283E-003
3.689999878406525E-001	1.113855279982090E-003
3.700000047683716E-001	1.108920085243881E-003
3.709999918937683E-001	1.104031573049724E-003
3.720000088214874E-001	1.099189044907689E-003
3.729999959468842E-001	1.094391802325845E-003
3.740000128746033E-001	1.089639146812260E-003
3.750000000000000E-001	1.084930379875004E-003
3.759999871253967E-001	1.080265035852790E-003
3.770000040531158E-001	1.075642299838364E-003
3.779999911785126E-001	1.071061706170440E-003
3.790000081062317E-001	1.066522439941764E-003
3.799999952316284E-001	1.062024151906371E-003
3.810000121593475E-001	1.057566027157009E-003
3.819999992847443E-001	1.053147716447711E-003
3.829999864101410E-001	1.048768404871225E-003
3.840000033378601E-001	1.044427743181586E-003
3.849999904632568E-001	1.040125149302185E-003
3.860000073909760E-001	1.035859924741089E-003
3.869999945163727E-001	1.031631720252335E-003
3.880000114440918E-001	1.027440070174634E-003
3.889999985694885E-001	1.023284276016057E-003
3.899999856948853E-001	1.019163872115314E-003
3.910000026226044E-001	1.015078509226441E-003
3.919999897480011E-001	1.011027605272830E-003
3.930000066757202E-001	1.007010811008513E-003
3.939999938011169E-001	1.003027427941561E-003
3.950000107288361E-001	9.990772232413292E-004
3.959999978542328E-001	9.951596148312092E-004
3.969999849796295E-001	9.912742534652352E-004
3.980000019073486E-001	9.874207898974419E-004
3.989999890327454E-001	9.835985256358981E-004
4.000000059604645E-001	9.798073442652822E-004
4.009999930858612E-001	9.760466055013239E-004
4.020000100135803E-001	9.723160765133798E-004
4.029999971389771E-001	9.686152916401625E-004
4.039999842643738E-001	9.649438434280455E-004
4.050000011920929E-001	9.613014408387244E-004
4.059999883174896E-001	9.576876182109118E-004
4.070000052452087E-001	9.541020845063031E-004
4.079999923706055E-001	9.505443740636110E-004
4.090000092983246E-001	9.470142540521920E-004
4.099999964237213E-001	9.435113170184195E-004
4.110000133514404E-001	9.400352719239891E-004
4.120000004768372E-001	9.365856531076133E-004
4.129999876022339E-001	9.331622859463096E-004
4.140000045299530E-001	9.297647629864514E-004
4.149999916553497E-001	9.263927931897342E-004
4.160000085830688E-001	9.230460273101926E-004
4.169999957084656E-001	9.197242325171828E-004
4.180000126361847E-001	9.164270013570786E-004
4.189999997615814E-001	9.131541592068970E-004
4.199999868869781E-001	9.099052986130118E-004
4.210000038146973E-001	9.066801867447793E-004
4.219999909400940E-001	9.034785325638950E-004
4.230000078678131E-001	9.003001032397151E-004
4.239999949932098E-001	8.971445495262742E-004
4.250000119209290E-001	8.940116385929286E-004
4.259999990463257E-001	8.909010794013739E-004
4.269999861717224E-001	8.878126391209662E-004
4.280000030994415E-001	8.847460849210620E-004
4.289999902248383E-001	8.817010675556958E-004
4.300000071525574E-001	8.786774706095457E-004
4.309999942779541E-001	8.756750030443072E-004
4.320000112056732E-001	8.726933738216758E-004
4.329999983310699E-001	8.697323501110077E-004
4.339999854564667E-001	8.667917572893202E-004
4.350000023841858E-001	8.638713625259697E-004
4.359999895095825E-001	8.609708747826517E-004
4.370000064373016E-001	8.580901194363832E-004
4.379999935626984E-001	8.552289218641818E-004
4.390000104904175E-001	8.523869910277426E-004
4.399999976158142E-001	8.495640940964222E-004
4.409999847412109E-001	8.467601146548986E-004
4.420000016689301E-001	8.439748198725283E-004
4.429999887943268E-001	8.412079769186676E-004
4.440000057220459E-001	8.384594111703336E-004
4.449999928474426E-001	8.357288897968829E-004
4.460000097751617E-001	8.330162381753325E-004
4.469999969005585E-001	8.303213398903608E-004
4.480000138282776E-001	8.276438456960022E-004
4.490000009536743E-001	8.249837555922568E-004
4.499999880790710E-001	8.223407785408199E-004
4.510000050067902E-001	8.197147399187088E-004
4.519999921321869E-001	8.171054651029408E-004
4.530000090599060E-001	8.145128376781940E-004
4.539999961853027E-001	8.119366248138249E-004
4.550000131130219E-001	8.093766518868506E-004
4.560000002384186E-001	8.068328024819493E-004
4.569999873638153E-001	8.043049019761384E-004
4.580000042915344E-001	8.017927757464349E-004
4.589999914169312E-001	7.992962491698563E-004
4.600000083446503E-001	7.968152058310807E-004
4.609999954700470E-001	7.943494128994644E-004
4.620000123977661E-001	7.918988121673465E-004
4.629999995231628E-001	7.894632290117443E-004
4.639999866485596E-001	7.870424306020141E-004
4.650000035762787E-001	7.846364169381559E-004
4.659999907016754E-001	7.822448969818652E-004
4.670000076293945E-001	7.798678707331419E-004
4.679999947547913E-001	7.775051053613424E-004
4.690000116825104E-001	7.751564262434840E-004
4.699999988079071E-001	7.728217751719058E-004
4.709999859333038E-001	7.705010357312858E-004
4.720000028610229E-001	7.681940332986414E-004
4.729999899864197E-001	7.659005932509899E-004
4.740000069141388E-001	7.636206573806703E-004
4.749999940395355E-001	7.613541092723608E-004
4.760000109672546E-001	7.591007160954177E-004
4.769999980926514E-001	7.568604778498411E-004
4.779999852180481E-001	7.546332199126482E-004
4.790000021457672E-001	7.524188258685172E-004
4.799999892711639E-001	7.502171210944653E-004
4.810000061988831E-001	7.480281055904925E-004
4.819999933242798E-001	7.458515465259552E-004
4.830000102519989E-001	7.436873856931925E-004
4.839999973773956E-001	7.415355066768825E-004
4.850000143051147E-001	7.393958512693644E-004
4.860000014305115E-001	7.372681866399944E-004
4.869999885559082E-001	7.351525127887726E-004
4.880000054836273E-001	7.330486550927162E-004
4.889999926090240E-001	7.309565553441644E-004
4.900000095367432E-001	7.288760971277952E-004
4.909999966621399E-001	7.268071640282869E-004
4.920000135898590E-001	7.247496396303177E-004
4.930000007152557E-001	7.227034657262266E-004
4.939999878406525E-001	7.206685259006917E-004
4.950000047683716E-001	7.186447037383914E-004
4.959999918937683E-001	7.166318828240037E-004
4.970000088214874E-001	7.146300049498677E-004
4.979999959468842E-001	7.126390119083226E-004
4.990000128746033E-001	7.106587290763855E-004
