Ewe/V	I/mA
5.000000000000000E-001	0.000000000000000E+000
4.990000128746033E-001	-2.544888104694110E-007
4.979999959468842E-001	-5.376444178750717E-008
4.970000088214874E-001	-9.330648964578359E-008
4.959999918937683E-001	-6.872957669656898E-008
4.950000047683716E-001	-7.084420872160990E-008
4.939999878406525E-001	-6.690130760489410E-008
4.930000007152557E-001	-6.656766515789059E-008
4.920000135898590E-001	-6.609634084497884E-008
4.909999966621399E-001	-6.641583638611337E-008
4.900000095367432E-001	-6.703595545332064E-008
4.889999926090240E-001	-6.800197382972328E-008
4.880000054836273E-001	-6.922203255044224E-008
4.869999885559082E-001	-7.067404084182272E-008
4.860000014305115E-001	-7.232885934627120E-008
4.850000143051147E-001	-7.417045821966894E-008
4.839999973773956E-001	-7.618603348191755E-008
4.830000102519989E-001	-7.836715809617090E-008
4.819999933242798E-001	-8.070799850656840E-008
4.810000061988831E-001	-8.320490252344825E-008
4.799999892711639E-001	-8.585588773257768E-008
4.790000021457672E-001	-8.866027911835772E-008
4.779999852180481E-001	-9.161851721728453E-008
4.769999980926514E-001	-9.473193784970135E-008
4.760000109672546E-001	-9.800263711667867E-008
4.749999940395355E-001	-1.014333932403133E-007
4.740000069141388E-001	-1.050275670877454E-007
4.729999899864197E-001	-1.087890524331669E-007
4.720000028610229E-001	-1.127222262198302E-007
4.709999859333038E-001	-1.168319272437657E-007
4.699999988079071E-001	-1.211234206266454E-007
4.690000116825104E-001	-1.256023693940733E-007
4.679999947547913E-001	-1.302748415810129E-007
4.670000076293945E-001	-1.351473173372142E-007
4.659999907016754E-001	-1.402266320837953E-007
4.650000035762787E-001	-1.455200191458061E-007
4.639999866485596E-001	-1.510350671196647E-007
4.629999995231628E-001	-1.567798051382852E-007
4.620000123977661E-001	-1.627626176059493E-007
4.609999954700470E-001	-1.689922868308713E-007
4.600000083446503E-001	-1.754780072360518E-007
4.589999914169312E-001	-1.822294137809877E-007
4.580000042915344E-001	-1.892565393291079E-007
4.569999873638153E-001	-1.965698714911923E-007
4.560000002384186E-001	-2.041803526253716E-007
4.550000131130219E-001	-2.120993656262726E-007
4.539999961853027E-001	-2.203388191901468E-007
4.530000090599060E-001	-2.289110909714509E-007
4.519999921321869E-001	-2.378290986371212E-007
4.510000050067902E-001	-2.471062430231541E-007
4.499999880790710E-001	-2.567565502431535E-007
4.490000009536743E-001	-2.667945580014930E-007
4.480000138282776E-001	-2.772354434910085E-007
4.469999969005585E-001	-2.880949807604338E-007
4.460000097751617E-001	-2.993895407144009E-007
4.449999928474426E-001	-3.111362616436963E-007
4.440000057220459E-001	-3.233529071167141E-007
4.429999887943268E-001	-3.360579228228744E-007
4.420000016689301E-001	-3.492705502594617E-007
4.409999847412109E-001	-3.630108267316245E-007
4.399999976158142E-001	-3.772995000872470E-007
4.390000104904175E-001	-3.921582276689151E-007
4.379999935626984E-001	-4.076095478922070E-007
4.370000064373016E-001	-4.236767949805653E-007
4.359999895095825E-001	-4.403843547606812E-007
4.350000023841858E-001	-4.577575225539476E-007
4.339999854564667E-001	-4.758225884415879E-007
4.329999983310699E-001	-4.946069793732022E-007
4.320000112056732E-001	-5.141390602148022E-007
4.309999942779541E-001	-5.344485316527425E-007
4.300000071525574E-001	-5.555660891332082E-007
4.289999902248383E-001	-5.775237355010177E-007
4.280000030994415E-001	-6.003547241562046E-007
4.269999861717224E-001	-6.240937295842741E-007
4.259999990463257E-001	-6.487766199825273E-007
4.250000119209290E-001	-6.744407983205747E-007
4.239999949932098E-001	-7.011251454969170E-007
4.230000078678131E-001	-7.288701908692019E-007
4.219999909400940E-001	-7.577178280371299E-007
4.210000038146973E-001	-7.877118264332239E-007
4.199999868869781E-001	-8.188976039491536E-007
4.189999997615814E-001	-8.513224543094111E-007
4.180000126361847E-001	-8.850353765410546E-007
4.169999957084656E-001	-9.200875865644775E-007
4.160000085830688E-001	-9.565320624460583E-007
4.149999916553497E-001	-9.944239991455106E-007
4.140000045299530E-001	-1.033820922202722E-006
4.129999876022339E-001	-1.074782403520658E-006
4.120000004768372E-001	-1.117370402425877E-006
4.110000133514404E-001	-1.161649606729043E-006
4.099999964237213E-001	-1.207686977977573E-006
4.090000092983246E-001	-1.255552206202992E-006
4.079999923706055E-001	-1.305317823607766E-006
4.070000052452087E-001	-1.357059090878465E-006
4.059999883174896E-001	-1.410854451933119E-006
4.050000011920929E-001	-1.466785420234373E-006
4.039999842643738E-001	-1.524936578789493E-006
4.029999971389771E-001	-1.585395921210875E-006
4.020000100135803E-001	-1.648255079089722E-006
4.009999930858612E-001	-1.713609321996046E-006
4.000000059604645E-001	-1.781557330104988E-006
3.989999890327454E-001	-1.852202103691525E-006
3.980000019073486E-001	-1.925650622069952E-006
3.969999849796295E-001	-2.002013843593886E-006
3.959999978542328E-001	-2.081407501464128E-006
3.950000107288361E-001	-2.163951876354986E-006
3.939999938011169E-001	-2.249771796414279E-006
3.930000066757202E-001	-2.338997092010686E-006
3.919999897480011E-001	-2.431762595733744E-006
3.910000026226044E-001	-2.528209051888552E-006
3.899999856948853E-001	-2.628481979627395E-006
3.889999985694885E-001	-2.732733491939143E-006
3.880000114440918E-001	-2.841121158780879E-006
3.869999945163727E-001	-2.953808689198922E-006
3.860000073909760E-001	-3.070966840823530E-006
3.849999904632568E-001	-3.192772737747873E-006
3.840000033378601E-001	-3.319410552649060E-006
3.829999864101410E-001	-3.451071734161815E-006
3.819999992847443E-001	-3.587955461625825E-006
3.810000121593475E-001	-3.730268872459419E-006
3.799999952316284E-001	-3.878226834785892E-006
3.790000081062317E-001	-4.032052856928203E-006
3.779999911785126E-001	-4.191979769530008E-006
3.770000040531158E-001	-4.358249498181976E-006
3.759999871253967E-001	-4.531113063421799E-006
3.750000000000000E-001	-4.710831490228884E-006
3.740000128746033E-001	-4.897676262771711E-006
3.729999959468842E-001	-5.091930233902531E-006
3.720000088214874E-001	-5.293886715662666E-006
3.709999918937683E-001	-5.503849934029859E-006
3.700000047683716E-001	-5.722137757402379E-006
3.689999878406525E-001	-5.949079877609620E-006
3.680000007152557E-001	-6.185018264659448E-006
3.669999837875366E-001	-6.430309440474957E-006
3.659999966621399E-001	-6.685324024147121E-006
3.650000095367432E-001	-6.950446277187439E-006
3.639999926090240E-001	-7.226075922517339E-006
3.630000054836273E-001	-7.512629963457584E-006
3.619999885559082E-001	-7.810539500496816E-006
3.610000014305115E-001	-8.120254278765060E-006
3.599999845027924E-001	-8.442240869044326E-006
3.589999973773956E-001	-8.776984941505361E-006
3.580000102519989E-001	-9.124991265707649E-006
3.569999933242798E-001	-9.486783710599411E-006
3.560000061988831E-001	-9.862907063507009E-006
3.549999892711639E-001	-1.025392884912435E-005
3.540000021457672E-001	-1.066043660102878E-005
3.529999852180481E-001	-1.108304331864929E-005
3.519999980926514E-001	-1.152238473878242E-005
3.510000109672546E-001	-1.197912115458166E-005
3.499999940395355E-001	-1.245394105353625E-005
3.490000069141388E-001	-1.294755656999769E-005
3.479999899864197E-001	-1.346071076113731E-005
3.470000028610229E-001	-1.399417487846222E-005
3.459999859333038E-001	-1.454874927730998E-005
3.449999988079071E-001	-1.512526796432212E-005
3.440000116825104E-001	-1.572459586896002E-005
3.429999947547913E-001	-1.634763248148374E-005
3.420000076293945E-001	-1.699531276244670E-005
3.409999907016754E-001	-1.766860805219039E-005
3.400000035762787E-001	-1.836852425185498E-005
3.389999866485596E-001	-1.909611455630511E-005
3.379999995231628E-001	-1.985246672120411E-005
3.370000123977661E-001	-2.063871215796098E-005
3.359999954700470E-001	-2.145602775271982E-005
3.350000083446503E-001	-2.230563586635981E-005
3.339999914169312E-001	-2.318880615348462E-005
3.330000042915344E-001	-2.410685738141183E-005
3.319999873638153E-001	-2.506115924916230E-005
3.310000002384186E-001	-2.605313784442842E-005
3.299999833106995E-001	-2.708426836761646E-005
3.289999961853027E-001	-2.815609150275122E-005
3.280000090599060E-001	-2.927020250353962E-005
3.269999921321869E-001	-3.042825665033888E-005
3.260000050067902E-001	-3.163197834510356E-005
3.249999880790710E-001	-3.288315565441735E-005
3.240000009536743E-001	-3.418364212848246E-005
3.229999840259552E-001	-3.553537317202426E-005
3.219999969005585E-001	-3.694034967338666E-005
3.210000097751617E-001	-3.840065255644731E-005
3.199999928474426E-001	-3.991844278061762E-005
3.190000057220459E-001	-4.149596497882158E-005
3.179999887943268E-001	-4.313554381951690E-005
3.170000016689301E-001	-4.483960219658911E-005
3.159999847412109E-001	-4.661064667743631E-005
3.149999976158142E-001	-4.845128933084197E-005
3.140000104904175E-001	-5.036423681303859E-005
3.129999935626984E-001	-5.235229400568642E-005
3.120000064373016E-001	-5.441837492980994E-005
3.109999895095825E-001	-5.656551365973428E-005
3.100000023841858E-001	-5.879684249521233E-005
3.089999854564667E-001	-6.111562834121287E-005
3.079999983310699E-001	-6.352524360409006E-005
3.070000112056732E-001	-6.602920620935038E-005
3.059999942779541E-001	-6.863115413580090E-005
3.050000071525574E-001	-7.133485632948577E-005
3.039999902248383E-001	-7.414424908347428E-005
3.030000030994415E-001	-7.706337055424228E-005
3.019999861717224E-001	-8.009645534912124E-005
3.009999990463257E-001	-8.324786904267967E-005
3.000000119209290E-001	-8.652213728055358E-005
2.989999949932098E-001	-8.992396760731936E-005
2.980000078678131E-001	-9.345822036266327E-005
2.969999909400940E-001	-9.712995233712718E-005
2.960000038146973E-001	-1.009443876682781E-004
2.949999868869781E-001	-1.049069614964537E-004
2.939999997615814E-001	-1.090232835849747E-004
2.929999828338623E-001	-1.132991819758900E-004
2.919999957084656E-001	-1.177406738861464E-004
2.910000085830688E-001	-1.223540166392922E-004
2.899999916553497E-001	-1.271456858376041E-004
2.890000045299530E-001	-1.321223535342142E-004
2.879999876022339E-001	-1.372909609926865E-004
2.870000004768372E-001	-1.426586968591437E-004
2.859999835491180E-001	-1.482329680584371E-004
2.849999964237213E-001	-1.540214580018073E-004
2.840000092983246E-001	-1.600321265868843E-004
2.829999923706055E-001	-1.662731810938567E-004
2.820000052452087E-001	-1.727531198412180E-004
2.809999883174896E-001	-1.794807321857661E-004
2.800000011920929E-001	-1.864650839706883E-004
2.789999842643738E-001	-1.937155611813068E-004
2.779999971389771E-001	-2.012418699450791E-004
2.770000100135803E-001	-2.090539928758517E-004
2.759999930858612E-001	-2.171622618334368E-004
2.750000059604645E-001	-2.255773579236120E-004
2.739999890327454E-001	-2.343102678423747E-004
2.730000019073486E-001	-2.433723275316879E-004
2.719999849796295E-001	-2.527752658352256E-004
2.709999978542328E-001	-2.625311026349664E-004
2.700000107288361E-001	-2.726523089222610E-004
2.689999938011169E-001	-2.831516321748495E-004
2.680000066757202E-001	-2.940422855317593E-004
2.669999897480011E-001	-3.053378313779831E-004
2.660000026226044E-001	-3.170521813444793E-004
2.649999856948853E-001	-3.291997127234936E-004
2.639999985694885E-001	-3.417951229494065E-004
2.629999816417694E-001	-3.548536042217165E-004
2.619999945163727E-001	-3.683906397782266E-004
2.610000073909760E-001	-3.824222076218575E-004
2.599999904632568E-001	-3.969646641053259E-004
2.590000033378601E-001	-4.120347439311445E-004
2.579999864101410E-001	-4.276495892554522E-004
2.569999992847443E-001	-4.438268369995058E-004
2.559999823570251E-001	-4.605843860190362E-004
2.549999952316284E-001	-4.779406008310616E-004
2.540000081062317E-001	-4.959142534062266E-004
2.529999911785126E-001	-5.145244067534804E-004
2.520000040531158E-001	-5.337906186468899E-004
2.509999871253967E-001	-5.537326796911657E-004
2.500000000000000E-001	-5.743708461523056E-004
2.489999979734421E-001	-5.957256653346121E-004
2.479999959468842E-001	-6.178178591653705E-004
2.469999939203262E-001	-6.406686734408140E-004
2.459999918937683E-001	-6.642994703724980E-004
2.449999898672104E-001	-6.887319032102823E-004
2.440000027418137E-001	-7.139877416193485E-004
2.430000007152557E-001	-7.400891627185047E-004
2.419999986886978E-001	-7.670582272112370E-004
2.409999966621399E-001	-7.949173450469971E-004
2.399999946355820E-001	-8.236888097599149E-004
2.389999926090240E-001	-8.533950312994421E-004
2.379999905824661E-001	-8.840583614073694E-004
2.370000034570694E-001	-9.157010936178267E-004
2.360000014305115E-001	-9.483454050496221E-004
2.349999994039536E-001	-9.820131817832589E-004
2.339999973773956E-001	-1.016726135276258E-003
2.329999953508377E-001	-1.052505569532514E-003
2.319999933242798E-001	-1.089372555725276E-003
2.309999912977219E-001	-1.127347350120544E-003
2.299999892711639E-001	-1.166449976153672E-003
2.290000021457672E-001	-1.206699409522116E-003
2.280000001192093E-001	-1.248114393092692E-003
2.269999980926514E-001	-1.290712156333029E-003
2.259999960660934E-001	-1.334509579464793E-003
2.249999940395355E-001	-1.379522145725787E-003
2.239999920129776E-001	-1.425764057785273E-003
2.229999899864197E-001	-1.473248470574617E-003
2.220000028610229E-001	-1.521986909210682E-003
2.210000008344650E-001	-1.571989501826465E-003
2.199999988079071E-001	-1.623264630325139E-003
2.189999967813492E-001	-1.675818813964725E-003
2.179999947547913E-001	-1.729656709358096E-003
2.169999927282333E-001	-1.784780761227012E-003
2.159999907016754E-001	-1.841191435232759E-003
2.149999886751175E-001	-1.898886519484222E-003
2.140000015497208E-001	-1.957861473783851E-003
2.129999995231628E-001	-2.018109196797013E-003
2.119999974966049E-001	-2.079619793221354E-003
2.109999954700470E-001	-2.142380224540830E-003
2.099999934434891E-001	-2.206374658271670E-003
2.089999914169312E-001	-2.271584002301097E-003
2.079999893903732E-001	-2.337985904887319E-003
2.070000022649765E-001	-2.405554754659534E-003
2.060000002384186E-001	-2.474261214956641E-003
2.049999982118607E-001	-2.544072456657887E-003
2.039999961853027E-001	-2.614952158182859E-003
2.029999941587448E-001	-2.686860039830208E-003
2.019999921321869E-001	-2.759751863777637E-003
2.009999901056290E-001	-2.833580132573843E-003
1.999999880790710E-001	-2.908292924985290E-003
1.990000009536743E-001	-2.983834594488144E-003
1.979999989271164E-001	-3.060145769268274E-003
1.969999969005585E-001	-3.137163119390607E-003
1.959999948740005E-001	-3.214819589629769E-003
1.949999928474426E-001	-3.293044632300735E-003
1.939999908208847E-001	-3.371763508766890E-003
1.929999887943268E-001	-3.450898453593254E-003
1.920000016689301E-001	-3.530368441715837E-003
1.909999996423721E-001	-3.610088722780347E-003
1.899999976158142E-001	-3.689972218126059E-003
1.889999955892563E-001	-3.769928356632590E-003
1.879999935626984E-001	-3.849864704534411E-003
1.869999915361404E-001	-3.929685801267624E-003
1.859999895095825E-001	-4.009295254945755E-003
1.850000023841858E-001	-4.088593181222677E-003
1.840000003576279E-001	-4.167480394244194E-003
1.829999983310699E-001	-4.245855379849672E-003
1.819999963045120E-001	-4.323615692555904E-003
1.809999942779541E-001	-4.400659352540970E-003
1.799999922513962E-001	-4.476883448660374E-003
1.789999902248383E-001	-4.552186932414770E-003
1.779999881982803E-001	-4.626468289643526E-003
1.770000010728836E-001	-4.699627403169870E-003
1.759999990463257E-001	-4.771566018462181E-003
1.749999970197678E-001	-4.842187743633986E-003
1.739999949932098E-001	-4.911398049443960E-003
1.729999929666519E-001	-4.979106597602367E-003
1.719999909400940E-001	-5.045223981142044E-003
1.709999889135361E-001	-5.109665915369987E-003
1.700000017881393E-001	-5.172350909560919E-003
1.689999997615814E-001	-5.233202595263720E-003
1.679999977350235E-001	-5.292147863656282E-003
1.669999957084656E-001	-5.349119193851948E-003
1.659999936819077E-001	-5.404052790254354E-003
1.649999916553497E-001	-5.456891376525164E-003
1.639999896287918E-001	-5.507581401616335E-003
1.629999876022339E-001	-5.556075833737850E-003
1.620000004768372E-001	-5.602333229035139E-003
1.609999984502792E-001	-5.646317265927792E-003
1.599999964237213E-001	-5.687997210770845E-003
1.589999943971634E-001	-5.727348383516073E-003
1.579999923706055E-001	-5.764352157711983E-003
1.569999903440475E-001	-5.798995029181242E-003
1.559999883174896E-001	-5.831269547343254E-003
1.550000011920929E-001	-5.861172918230295E-003
1.539999991655350E-001	-5.888709332793951E-003
1.529999971389771E-001	-5.913886707276106E-003
1.519999951124191E-001	-5.936718545854092E-003
1.509999930858612E-001	-5.957223940640688E-003
1.499999910593033E-001	-5.975425709038973E-003
1.489999890327454E-001	-5.991352256387472E-003
1.480000019073486E-001	-6.005034781992435E-003
1.469999998807907E-001	-6.016510073095560E-003
1.459999978542328E-001	-6.025817245244980E-003
1.449999958276749E-001	-6.033000070601702E-003
1.439999938011169E-001	-6.038104649633169E-003
1.429999917745590E-001	-6.041180342435837E-003
1.419999897480011E-001	-6.042279303073883E-003
1.409999877214432E-001	-6.041456013917923E-003
1.400000005960464E-001	-6.038765888661146E-003
1.389999985694885E-001	-6.034268531948328E-003
1.379999965429306E-001	-6.028022617101669E-003
1.369999945163727E-001	-6.020089611411095E-003
1.359999924898148E-001	-6.010530982166529E-003
1.349999904632568E-001	-5.999410524964333E-003
1.339999884366989E-001	-5.986791104078293E-003
1.330000013113022E-001	-5.972736049443483E-003
1.319999992847443E-001	-5.957309622317553E-003
1.309999972581863E-001	-5.940575618296862E-003
1.299999952316284E-001	-5.922596435993910E-003
1.289999932050705E-001	-5.903436336666346E-003
1.279999911785126E-001	-5.883156787604094E-003
1.269999891519547E-001	-5.861819256097078E-003
1.259999871253967E-001	-5.839484743773937E-003
1.249999925494194E-001	-5.816212855279446E-003
1.239999979734421E-001	-5.792062263935804E-003
1.229999959468842E-001	-5.767089314758778E-003
1.219999939203262E-001	-5.741350818425417E-003
1.209999918937683E-001	-5.714900791645050E-003
1.199999973177910E-001	-5.687792319804430E-003
1.189999952912331E-001	-5.660077091306448E-003
1.179999932646751E-001	-5.631804931908846E-003
1.169999912381172E-001	-5.603023804724216E-003
1.159999966621399E-001	-5.573780741542578E-003
1.149999946355820E-001	-5.544120445847511E-003
1.139999926090240E-001	-5.514086224138737E-003
1.129999905824661E-001	-5.483719985932112E-003
1.119999960064888E-001	-5.453061778098345E-003
1.109999939799309E-001	-5.422149319201708E-003
1.099999919533730E-001	-5.391019862145185E-003
1.089999973773956E-001	-5.359708331525326E-003
1.079999953508377E-001	-5.328247789293528E-003
1.069999933242798E-001	-5.296669900417328E-003
1.059999912977219E-001	-5.265005398541689E-003
1.049999967217445E-001	-5.233282689005136E-003
1.039999946951866E-001	-5.201529245823622E-003
1.029999926686287E-001	-5.169770214706659E-003
1.019999906420708E-001	-5.138030741363764E-003
1.009999960660934E-001	-5.106332711875439E-003
9.999999403953552E-002	-5.074698477983475E-003
9.899999201297760E-002	-5.043148063123226E-003
9.799999743700027E-002	-5.011701025068760E-003
9.699999541044235E-002	-4.980374127626419E-003
9.599999338388443E-002	-4.949184600263834E-003
9.499999135732651E-002	-4.918148275464773E-003
9.399999678134918E-002	-4.887279123067856E-003
9.299999475479126E-002	-4.856591112911701E-003
9.199999272823334E-002	-4.826095886528492E-003
9.099999070167542E-002	-4.795805085450411E-003
8.999999612569809E-002	-4.765729885548353E-003
8.899999409914017E-002	-4.735879600048065E-003
8.799999207258224E-002	-4.706263076514006E-003
8.699999749660492E-002	-4.676888231188059E-003
8.599999547004700E-002	-4.647762514650822E-003
8.499999344348907E-002	-4.618892446160316E-003
8.399999141693115E-002	-4.590284079313278E-003
8.299999684095383E-002	-4.561943002045155E-003
8.199999481439590E-002	-4.533872939646244E-003
8.099999278783798E-002	-4.506079014390707E-003
7.999999076128006E-002	-4.478564485907555E-003
7.899999618530273E-002	-4.451332148164511E-003
7.799999415874481E-002	-4.424384795129299E-003
7.699999213218689E-002	-4.397724289447069E-003
7.599999010562897E-002	-4.371352493762970E-003
7.499999552965164E-002	-4.345270805060864E-003
7.399999350309372E-002	-4.319479689002037E-003
7.299999147653580E-002	-4.293980076909065E-003
7.199999690055847E-002	-4.268772434443235E-003
7.099999487400055E-002	-4.243855830281973E-003
6.999999284744263E-002	-4.219230264425278E-003
6.899999082088470E-002	-4.194895736873150E-003
6.799999624490738E-002	-4.170850384980440E-003
6.699999421834946E-002	-4.147093743085861E-003
6.599999219179153E-002	-4.123623948544264E-003
6.499999016523361E-002	-4.100439604371786E-003
6.399999558925629E-002	-4.077539313584566E-003
6.299999356269836E-002	-4.054920747876167E-003
6.199999526143074E-002	-4.032582510262728E-003
6.099999323487282E-002	-4.010521341115236E-003
5.999999493360519E-002	-3.988735843449831E-003
5.899999290704727E-002	-3.967223688960075E-003
5.799999460577965E-002	-3.945981152355671E-003
5.699999257922173E-002	-3.925006836652756E-003
5.599999427795410E-002	-3.904297482222319E-003
5.499999225139618E-002	-3.883850295096636E-003
5.399999395012856E-002	-3.863662481307983E-003
5.299999192357063E-002	-3.843731014057994E-003
5.199999362230301E-002	-3.824053099378943E-003
5.099999159574509E-002	-3.804625710472465E-003
4.999999329447746E-002	-3.785445354878902E-003
4.899999499320984E-002	-3.766509471461177E-003
4.799999296665192E-002	-3.747814567759633E-003
4.699999466538429E-002	-3.729357849806547E-003
4.599999263882637E-002	-3.711135825142264E-003
4.499999433755875E-002	-3.693145466968417E-003
4.399999231100082E-002	-3.675383515655994E-003
4.299999400973320E-002	-3.657846944406629E-003
4.199999198317528E-002	-3.640532493591309E-003
4.099999368190765E-002	-3.623437136411667E-003
3.999999165534973E-002	-3.606557380408049E-003
3.899999335408211E-002	-3.589890198782086E-003
3.799999132752419E-002	-3.573432797566056E-003
3.699999302625656E-002	-3.557181451469660E-003
3.599999472498894E-002	-3.541133599355817E-003
3.499999269843102E-002	-3.525285981595516E-003
3.399999439716339E-002	-3.509635338559747E-003
3.299999237060547E-002	-3.494178876280785E-003
3.199999406933784E-002	-3.478913567960262E-003
3.099999390542507E-002	-3.463836386799812E-003
2.999999374151230E-002	-3.448944306001067E-003
2.899999357759953E-002	-3.434234531596303E-003
2.799999341368675E-002	-3.419704269617796E-003
2.699999324977398E-002	-3.405350493267179E-003
2.599999308586121E-002	-3.391170408576727E-003
2.499999292194843E-002	-3.377161454409361E-003
2.399999275803566E-002	-3.363320603966713E-003
2.299999259412289E-002	-3.349645296111703E-003
2.199999243021011E-002	-3.336132736876607E-003
2.099999226629734E-002	-3.322780365124345E-003
1.999999210238457E-002	-3.309585619717836E-003
1.899999193847179E-002	-3.296545939520001E-003
1.799999363720417E-002	-3.283658763393760E-003
1.699999347329140E-002	-3.270921763032675E-003
1.599999330937862E-002	-3.258332144469023E-003
1.499999314546585E-002	-3.245887812227011E-003
1.399999298155308E-002	-3.233586205169559E-003
1.299999281764030E-002	-3.221425227820873E-003
1.199999265372753E-002	-3.209402319043875E-003
1.099999248981476E-002	-3.197515383362770E-003
9.999992325901985E-003	-3.185762092471123E-003
8.999993093311787E-003	-3.174140118062496E-003
7.999992929399014E-003	-3.162647830322385E-003
6.999992765486240E-003	-3.151282668113709E-003
5.999992601573467E-003	-3.140042535960674E-003
4.999992437660694E-003	-3.128925571218133E-003
3.999992739409208E-003	-3.117929911240935E-003
2.999992575496435E-003	-3.107053227722645E-003
1.999992644414306E-003	-3.096293658018112E-003
9.999925969168544E-004	-3.085649572312832E-003
-7.450580596923828E-009	-3.075118875131011E-003
-1.000007498078048E-003	-3.064699703827500E-003
-2.000007545575500E-003	-3.054390428587794E-003
-3.000007476657629E-003	-3.044189186766744E-003
-4.000007640570402E-003	-3.034094115719199E-003
-5.000007338821888E-003	-3.024103818461299E-003
-6.000007502734661E-003	-3.014216432347894E-003
-7.000007666647434E-003	-3.004430094733834E-003
-8.000007830560207E-003	-2.994743641465902E-003
-9.000007994472981E-003	-2.985154977068305E-003
-1.000000722706318E-002	-2.975662937387824E-003
-1.100000739097595E-002	-2.966265892609954E-003
-1.200000755488873E-002	-2.956962445750833E-003
-1.300000771880150E-002	-2.947750966995955E-003
-1.400000788271427E-002	-2.938630059361458E-003
-1.500000804662704E-002	-2.929598093032837E-003
-1.600000821053982E-002	-2.920654136687517E-003
-1.700000837445259E-002	-2.911796327680349E-003
-1.800000853836536E-002	-2.903023734688759E-003
-1.900000683963299E-002	-2.894334960728884E-003
-2.000000700354576E-002	-2.885728608816862E-003
-2.100000716745853E-002	-2.877203281968832E-003
-2.200000733137131E-002	-2.868758048862219E-003
-2.300000749528408E-002	-2.860391512513161E-003
-2.400000765919685E-002	-2.852102508768439E-003
-2.500000782310963E-002	-2.843889873474836E-003
-2.600000798702240E-002	-2.835752442479134E-003
-2.700000815093517E-002	-2.827689284458756E-003
-2.800000831484795E-002	-2.819698769599199E-003
-2.900000847876072E-002	-2.811780432239175E-003
-3.000000864267349E-002	-2.803932642564178E-003
-3.100000880658627E-002	-2.796154702082276E-003
-3.200000897049904E-002	-2.788445679470897E-003
-3.300000727176666E-002	-2.780804410576820E-003
-3.400000929832459E-002	-2.773229731246829E-003
-3.500000759959221E-002	-2.765720710158348E-003
-3.600000962615013E-002	-2.758276648819447E-003
-3.700000792741776E-002	-2.750896615907550E-003
-3.800000622868538E-002	-2.743579447269440E-003
-3.900000825524330E-002	-2.736324444413185E-003
-4.000000655651093E-002	-2.729130443185568E-003
-4.100000858306885E-002	-2.721996977925301E-003
-4.200000688433647E-002	-2.714922651648521E-003
-4.300000891089439E-002	-2.707907231524587E-003
-4.400000721216202E-002	-2.700949553400278E-003
-4.500000923871994E-002	-2.694048918783665E-003
-4.600000753998756E-002	-2.687204629182816E-003
-4.700000956654549E-002	-2.680415520444512E-003
-4.800000786781311E-002	-2.673681126907468E-003
-4.900000989437103E-002	-2.667000750079751E-003
-5.000000819563866E-002	-2.660373691469431E-003
-5.100000649690628E-002	-2.653798786923289E-003
-5.200000852346420E-002	-2.647276036441326E-003
-5.300000682473183E-002	-2.640804043039680E-003
-5.400000885128975E-002	-2.634382573887706E-003
-5.500000715255737E-002	-2.628010697662830E-003
-5.600000917911530E-002	-2.621688181534410E-003
-5.700000748038292E-002	-2.615413861349225E-003
-5.800000950694084E-002	-2.609187271445990E-003
-5.900000780820847E-002	-2.603007946163416E-003
-6.000000983476639E-002	-2.596874954178929E-003
-6.100000813603401E-002	-2.590788062661886E-003
-6.200001016259193E-002	-2.584746573120356E-003
-6.300000846385956E-002	-2.578749787062407E-003
-6.400001049041748E-002	-2.572797238826752E-003
-6.500000506639481E-002	-2.566888229921460E-003
-6.600000709295273E-002	-2.561022294685245E-003
-6.700000911951065E-002	-2.555198967456818E-003
-6.800001114606857E-002	-2.549417549744248E-003
-6.900000572204590E-002	-2.543677808716893E-003
-7.000000774860382E-002	-2.537978813052177E-003
-7.100000977516174E-002	-2.532320562750101E-003
-7.200001180171967E-002	-2.526701893657446E-003
-7.300000637769699E-002	-2.521123038604856E-003
-7.400000840425491E-002	-2.515583066269755E-003
-7.500001043081284E-002	-2.510081510990858E-003
-7.600000500679016E-002	-2.504618139937520E-003
-7.700000703334808E-002	-2.499192254617810E-003
-7.800000905990601E-002	-2.493803622201085E-003
-7.900001108646393E-002	-2.488451777026057E-003
-8.000000566244125E-002	-2.483136020600796E-003
-8.100000768899918E-002	-2.477856120094657E-003
-8.200000971555710E-002	-2.472611842676997E-003
-8.300001174211502E-002	-2.467402489855886E-003
-8.400000631809235E-002	-2.462227595970035E-003
-8.500000834465027E-002	-2.457087161019444E-003
-8.600001037120819E-002	-2.451980486512184E-003
-8.700001239776611E-002	-2.446907106786966E-003
-8.800000697374344E-002	-2.441867021843791E-003
-8.900000900030136E-002	-2.436859300360084E-003
-9.000001102685928E-002	-2.431884175166488E-003
-9.100000560283661E-002	-2.426940947771072E-003
-9.200000762939453E-002	-2.422029152512550E-003
-9.300000965595245E-002	-2.417148789390922E-003
-9.400001168251038E-002	-2.412299159914255E-003
-9.500000625848770E-002	-2.407480264082551E-003
-9.600000828504562E-002	-2.402691403403878E-003
-9.700001031160355E-002	-2.397932577878237E-003
-9.800001233816147E-002	-2.393203089013696E-003
-9.900000691413879E-002	-2.388503169640899E-003
-1.000000089406967E-001	-2.383831888437271E-003
-1.010000109672546E-001	-2.379189478233457E-003
-1.020000055432320E-001	-2.374575240537524E-003
-1.030000075697899E-001	-2.369988942518830E-003
-1.040000095963478E-001	-2.365430584177375E-003
-1.050000116229057E-001	-2.360899467021227E-003
-1.060000061988831E-001	-2.356395591050386E-003
-1.070000082254410E-001	-2.351918490603566E-003
-1.080000102519989E-001	-2.347468165680766E-003
-1.090000122785568E-001	-2.343043917790055E-003
-1.100000068545341E-001	-2.338645979762077E-003
-1.110000088810921E-001	-2.334273653104901E-003
-1.120000109076500E-001	-2.329926704987884E-003
-1.130000054836273E-001	-2.325605135411024E-003
-1.140000075101852E-001	-2.321308478713036E-003
-1.150000095367432E-001	-2.317036734893918E-003
-1.160000115633011E-001	-2.312789438292384E-003
-1.170000061392784E-001	-2.308566356077790E-003
-1.180000081658363E-001	-2.304367255419493E-003
-1.190000101923943E-001	-2.300191903486848E-003
-1.200000122189522E-001	-2.296040300279856E-003
-1.210000067949295E-001	-2.291911747306585E-003
-1.220000088214874E-001	-2.287806477397680E-003
-1.230000108480453E-001	-2.283723792061210E-003
-1.240000128746033E-001	-2.279663924127817E-003
-1.250000149011612E-001	-2.275626640766859E-003
-1.260000020265579E-001	-2.271611476317048E-003
-1.270000040531158E-001	-2.267618197947741E-003
-1.280000060796738E-001	-2.263646805658937E-003
-1.290000081062317E-001	-2.259696833789349E-003
-1.300000101327896E-001	-2.255768282338977E-003
-1.310000121593475E-001	-2.251861151307821E-003
-1.320000141859055E-001	-2.247974742203951E-003
-1.330000162124634E-001	-2.244109287858009E-003
-1.340000033378601E-001	-2.240264322608709E-003
-1.350000053644180E-001	-2.236439613625407E-003
-1.360000073909760E-001	-2.232635393738747E-003
-1.370000094175339E-001	-2.228851197287440E-003
-1.380000114440918E-001	-2.225086558610201E-003
-1.390000134706497E-001	-2.221341943368316E-003
-1.400000154972076E-001	-2.217616653069854E-003
-1.410000026226044E-001	-2.213910687714815E-003
-1.420000046491623E-001	-2.210223814472556E-003
-1.430000066757202E-001	-2.206556033343077E-003
-1.440000087022781E-001	-2.202906878665090E-003
-1.450000107288361E-001	-2.199276583269238E-003
-1.460000127553940E-001	-2.195664681494236E-003
-1.470000147819519E-001	-2.192070940509439E-003
-1.480000168085098E-001	-2.188495593145490E-003
-1.490000039339066E-001	-2.184937940910459E-003
-1.500000059604645E-001	-2.181398449465632E-003
-1.510000079870224E-001	-2.177876420319080E-003
-1.520000100135803E-001	-2.174372086301446E-003
-1.530000120401382E-001	-2.170884981751442E-003
-1.540000140666962E-001	-2.167415106669068E-003
-1.550000160932541E-001	-2.163962461054325E-003
-1.560000032186508E-001	-2.160526579245925E-003
-1.570000052452087E-001	-2.157107694074512E-003
-1.580000072717667E-001	-2.153705339878798E-003
-1.590000092983246E-001	-2.150319516658783E-003
-1.600000113248825E-001	-2.146949991583824E-003
-1.610000133514404E-001	-2.143596764653921E-003
-1.620000153779984E-001	-2.140259835869074E-003
-1.630000025033951E-001	-2.136938739567995E-003
-1.640000045299530E-001	-2.133633475750685E-003
-1.650000065565109E-001	-2.130343811586499E-003
-1.660000085830688E-001	-2.127069747075439E-003
-1.670000106096268E-001	-2.123811282217503E-003
-1.680000126361847E-001	-2.120568184182048E-003
-1.690000146627426E-001	-2.117340220138431E-003
-1.700000166893005E-001	-2.114127390086651E-003
-1.710000038146973E-001	-2.110929461196065E-003
-1.720000058412552E-001	-2.107746433466673E-003
-1.730000078678131E-001	-2.104578074067831E-003
-1.740000098943710E-001	-2.101424382999539E-003
-1.750000119209290E-001	-2.098285127431154E-003
-1.760000139474869E-001	-2.095160307362676E-003
-1.770000159740448E-001	-2.092049689963460E-003
-1.780000030994415E-001	-2.088953275233507E-003
-1.790000051259995E-001	-2.085870830342174E-003
-1.800000071525574E-001	-2.082802355289459E-003
-1.810000091791153E-001	-2.079747850075364E-003
-1.820000112056732E-001	-2.076706849038601E-003
-1.830000132322311E-001	-2.073679817840457E-003
-1.840000152587891E-001	-2.070666057989001E-003
-1.850000172853470E-001	-2.067665569484234E-003
-1.860000044107437E-001	-2.064678585156798E-003
-1.870000064373016E-001	-2.061704872176051E-003
-1.880000084638596E-001	-2.058744197711349E-003
-1.890000104904175E-001	-2.055796328932047E-003
-1.900000125169754E-001	-2.052861731499434E-003
-1.910000145435333E-001	-2.049939706921577E-003
-1.920000165700912E-001	-2.047030488029122E-003
-1.930000036954880E-001	-2.044133841991425E-003
-1.940000057220459E-001	-2.041249768808484E-003
-1.950000077486038E-001	-2.038378035649657E-003
-1.960000097751617E-001	-2.035518875345588E-003
-1.970000118017197E-001	-2.032671822234988E-003
-1.980000138282776E-001	-2.029836876317859E-003
-1.990000158548355E-001	-2.027014037594199E-003
-2.000000178813934E-001	-2.024203306064010E-003
-2.010000050067902E-001	-2.021404448896647E-003
-2.020000070333481E-001	-2.018617233261466E-003
-2.030000090599060E-001	-2.015841891989112E-003
-2.040000110864639E-001	-2.013078192248940E-003
-2.050000131130219E-001	-2.010326134040952E-003
-2.060000151395798E-001	-2.007585484534502E-003
-2.070000171661377E-001	-2.004856243729591E-003
-2.080000042915344E-001	-2.002138411626220E-003
-2.090000063180923E-001	-1.999431755393744E-003
-2.100000083446503E-001	-1.996736275032163E-003
-2.110000103712082E-001	-1.994051737710834E-003
-2.120000123977661E-001	-1.991378376260400E-003
-2.130000144243240E-001	-1.988715957850218E-003
-2.140000164508820E-001	-1.986064249649644E-003
-2.150000035762787E-001	-1.983423251658678E-003
-2.160000056028366E-001	-1.980793196707964E-003
-2.170000076293945E-001	-1.978173619136214E-003
-2.180000096559525E-001	-1.975564751774073E-003
-2.190000116825104E-001	-1.972966128960252E-003
-2.200000137090683E-001	-1.970378216356039E-003
-2.210000157356262E-001	-1.967800548300147E-003
-2.220000177621841E-001	-1.965232891961932E-003
-2.230000048875809E-001	-1.962675713002682E-003
-2.240000069141388E-001	-1.960128545761108E-003
-2.250000089406967E-001	-1.957591623067856E-003
-2.260000109672546E-001	-1.955064479261637E-003
-2.270000129938126E-001	-1.952547463588417E-003
-2.280000150203705E-001	-1.950040226802230E-003
-2.290000170469284E-001	-1.947542768903077E-003
-2.300000041723251E-001	-1.945054973475635E-003
-2.310000061988831E-001	-1.942576956935227E-003
-2.320000082254410E-001	-1.940108486451209E-003
-2.330000102519989E-001	-1.937649678438902E-003
-2.340000122785568E-001	-1.935200183652341E-003
-2.350000143051147E-001	-1.932760234922171E-003
-2.360000163316727E-001	-1.930329599417746E-003
-2.370000183582306E-001	-1.927908277139068E-003
-2.380000054836273E-001	-1.925496151670814E-003
-2.390000075101852E-001	-1.923093223012984E-003
-2.400000095367432E-001	-1.920699491165578E-003
-2.410000115633011E-001	-1.918314723297954E-003
-2.420000135898590E-001	-1.915938919410110E-003
-2.430000156164169E-001	-1.913572195917368E-003
-2.440000176429749E-001	-1.911214203573763E-003
-2.450000047683716E-001	-1.908865175209939E-003
-2.460000067949295E-001	-1.906524877995253E-003
-2.470000088214874E-001	-1.904193311929703E-003
-2.480000108480453E-001	-1.901870360597968E-003
-2.490000128746033E-001	-1.899556024000049E-003
-2.500000000000000E-001	-1.897250302135944E-003
-2.510000169277191E-001	-1.894952962175012E-003
-2.520000040531158E-001	-1.892664236947894E-003
-2.530000209808350E-001	-1.890383777208626E-003
-2.540000081062317E-001	-1.888111699372530E-003
-2.550000250339508E-001	-1.885847887024283E-003
-2.560000121593475E-001	-1.883592340163887E-003
-2.569999992847443E-001	-1.881345058791339E-003
-2.580000162124634E-001	-1.879105810075998E-003
-2.590000033378601E-001	-1.876874710433185E-003
-2.600000202655792E-001	-1.874651643447578E-003
-2.610000073909760E-001	-1.872436609119177E-003
-2.620000243186951E-001	-1.870229491032660E-003
-2.630000114440918E-001	-1.868030172772706E-003
-2.639999985694885E-001	-1.865838770754635E-003
-2.650000154972076E-001	-1.863655168563128E-003
-2.660000026226044E-001	-1.861479366198182E-003
-2.670000195503235E-001	-1.859311247244477E-003
-2.680000066757202E-001	-1.857150811702013E-003
-2.690000236034393E-001	-1.854997943155468E-003
-2.700000107288361E-001	-1.852852641604841E-003
-2.709999978542328E-001	-1.850714907050133E-003
-2.720000147819519E-001	-1.848584623076022E-003
-2.730000019073486E-001	-1.846461789682508E-003
-2.740000188350677E-001	-1.844346290454268E-003
-2.750000059604645E-001	-1.842238241806626E-003
-2.760000228881836E-001	-1.840137410908937E-003
-2.770000100135803E-001	-1.838043914176524E-003
-2.779999971389771E-001	-1.835957635194063E-003
-2.790000140666962E-001	-1.833878457546234E-003
-2.800000011920929E-001	-1.831806497648358E-003
-2.810000181198120E-001	-1.829741522669792E-003
-2.820000052452087E-001	-1.827683765441179E-003
-2.830000221729279E-001	-1.825632876716554E-003
-2.840000092983246E-001	-1.823588972911239E-003
-2.850000262260437E-001	-1.821552054025233E-003
-2.860000133514404E-001	-1.819522120058537E-003
-2.870000004768372E-001	-1.817498938180506E-003
-2.880000174045563E-001	-1.815482508391142E-003
-2.890000045299530E-001	-1.813472947105765E-003
-2.900000214576721E-001	-1.811470137909055E-003
-2.910000085830688E-001	-1.809473964385688E-003
-2.920000255107880E-001	-1.807484542950988E-003
-2.930000126361847E-001	-1.805501640774310E-003
-2.939999997615814E-001	-1.803525374270976E-003
-2.950000166893005E-001	-1.801555743440986E-003
-2.960000038146973E-001	-1.799592515453696E-003
-2.970000207424164E-001	-1.797635806724429E-003
-2.980000078678131E-001	-1.795685500837862E-003
-2.990000247955322E-001	-1.793741597793996E-003
-3.000000119209290E-001	-1.791804097592831E-003
-2.990000247955322E-001	-1.789872883819044E-003
-2.980000078678131E-001	-1.787948072887957E-003
-2.970000207424164E-001	-1.786029431968927E-003
-2.960000038146973E-001	-1.784117077477276E-003
-2.950000166893005E-001	-1.782210892997682E-003
-2.939999997615814E-001	-1.780310878530145E-003
-2.930000126361847E-001	-1.778416917659342E-003
-2.920000255107880E-001	-1.776529243215919E-003
-2.910000085830688E-001	-1.774647505953908E-003
-2.900000214576721E-001	-1.772771822288632E-003
-2.890000045299530E-001	-1.770902075804770E-003
-2.880000174045563E-001	-1.769038382917643E-003
-2.870000004768372E-001	-1.767180627211928E-003
-2.860000133514404E-001	-1.765328692272305E-003
-2.850000262260437E-001	-1.763482694514096E-003
-2.840000092983246E-001	-1.761642517521977E-003
-2.830000221729279E-001	-1.759808161295950E-003
-2.820000052452087E-001	-1.757979625836015E-003
-2.810000181198120E-001	-1.756156794726849E-003
-2.800000011920929E-001	-1.754339667968452E-003
-2.790000140666962E-001	-1.752528245560825E-003
-2.779999971389771E-001	-1.750722411088645E-003
-2.770000100135803E-001	-1.748922280967236E-003
-2.760000228881836E-001	-1.747127738781273E-003
-2.750000059604645E-001	-1.745338784530759E-003
-2.740000188350677E-001	-1.743555301800370E-003
-2.730000019073486E-001	-1.741777407005429E-003
-2.720000147819519E-001	-1.740004867315292E-003
-2.709999978542328E-001	-1.738237915560603E-003
-2.700000107288361E-001	-1.736476318910718E-003
-2.690000236034393E-001	-1.734720193780959E-003
-2.680000066757202E-001	-1.732969307340682E-003
-2.670000195503235E-001	-1.731223892420530E-003
-2.660000026226044E-001	-1.729483716189861E-003
-2.650000154972076E-001	-1.727748895063996E-003
-2.639999985694885E-001	-1.726019196212292E-003
-2.630000114440918E-001	-1.724294852465391E-003
-2.620000243186951E-001	-1.722575747407973E-003
-2.610000073909760E-001	-1.720861764624715E-003
-2.600000202655792E-001	-1.719152904115617E-003
-2.590000033378601E-001	-1.717449165880680E-003
-2.580000162124634E-001	-1.715750549919903E-003
-2.569999992847443E-001	-1.714057056233287E-003
-2.560000121593475E-001	-1.712368568405509E-003
-2.550000250339508E-001	-1.710685086436570E-003
-2.540000081062317E-001	-1.709006610326469E-003
-2.530000209808350E-001	-1.707333140075207E-003
-2.520000040531158E-001	-1.705664559267461E-003
-2.510000169277191E-001	-1.704000984318554E-003
-2.500000000000000E-001	-1.702342298813164E-003
-2.490000128746033E-001	-1.700688502751291E-003
-2.480000108480453E-001	-1.699039479717612E-003
-2.470000088214874E-001	-1.697395346127450E-003
-2.460000067949295E-001	-1.695755985565484E-003
-2.450000047683716E-001	-1.694121398031712E-003
-2.440000176429749E-001	-1.692491583526134E-003
-2.430000156164169E-001	-1.690866542048752E-003
-2.420000135898590E-001	-1.689246157184243E-003
-2.410000115633011E-001	-1.687630428932607E-003
-2.400000095367432E-001	-1.686019473709166E-003
-2.390000075101852E-001	-1.684413058683276E-003
-2.380000054836273E-001	-1.682811300270259E-003
-2.370000183582306E-001	-1.681214198470116E-003
-2.360000163316727E-001	-1.679621636867523E-003
-2.350000143051147E-001	-1.678033499047160E-003
-2.340000122785568E-001	-1.676450017839670E-003
-2.330000102519989E-001	-1.674871076829731E-003
-2.320000082254410E-001	-1.673296559602022E-003
-2.310000061988831E-001	-1.671726466156542E-003
-2.300000041723251E-001	-1.670160912908614E-003
-2.290000170469284E-001	-1.668599783442914E-003
-2.280000150203705E-001	-1.667042961344123E-003
-2.270000129938126E-001	-1.665490563027561E-003
-2.260000109672546E-001	-1.663942588493228E-003
-2.250000089406967E-001	-1.662398921325803E-003
-2.240000069141388E-001	-1.660859445109963E-003
-2.230000048875809E-001	-1.659324392676353E-003
-2.220000177621841E-001	-1.657793647609651E-003
-2.210000157356262E-001	-1.656267093494534E-003
-2.200000137090683E-001	-1.654744730331004E-003
-2.190000116825104E-001	-1.653226674534380E-003
-2.180000096559525E-001	-1.651712809689343E-003
-2.170000076293945E-001	-1.650203135795891E-003
-2.160000056028366E-001	-1.648697536438704E-003
-2.150000035762787E-001	-1.647196128033102E-003
-2.140000164508820E-001	-1.645698794163764E-003
-2.130000144243240E-001	-1.644205651246011E-003
-2.120000123977661E-001	-1.642716466449201E-003
-2.110000103712082E-001	-1.641231472603977E-003
-2.100000083446503E-001	-1.639750436879694E-003
-2.090000063180923E-001	-1.638273475691676E-003
-2.080000042915344E-001	-1.636800472624600E-003
-2.070000171661377E-001	-1.635331427678466E-003
-2.060000151395798E-001	-1.633866457268596E-003
-2.050000131130219E-001	-1.632405328564346E-003
-2.040000110864639E-001	-1.630948274396360E-003
-2.030000090599060E-001	-1.629494945518672E-003
-2.020000070333481E-001	-1.628045691177249E-003
-2.010000050067902E-001	-1.626600162126124E-003
-2.000000178813934E-001	-1.625158591195941E-003
-1.990000158548355E-001	-1.623720861971378E-003
-1.980000138282776E-001	-1.622286858037114E-003
-1.970000118017197E-001	-1.620856812223792E-003
-1.960000097751617E-001	-1.619430375285447E-003
-1.950000077486038E-001	-1.618007896468043E-003
-1.940000057220459E-001	-1.616589026525617E-003
-1.930000036954880E-001	-1.615173998288810E-003
-1.920000165700912E-001	-1.613762578926981E-003
-1.910000145435333E-001	-1.612354884855449E-003
-1.900000125169754E-001	-1.610950916074216E-003
-1.890000104904175E-001	-1.609550672583282E-003
-1.880000084638596E-001	-1.608154037967324E-003
-1.870000064373016E-001	-1.606761012226343E-003
-1.860000044107437E-001	-1.605371595360339E-003
-1.850000172853470E-001	-1.603985787369311E-003
-1.840000152587891E-001	-1.602603588253260E-003
-1.830000132322311E-001	-1.601224881596863E-003
-1.820000112056732E-001	-1.599849783815444E-003
-1.810000091791153E-001	-1.598478294909000E-003
-1.800000071525574E-001	-1.597110182046890E-003
-1.790000051259995E-001	-1.595745678059757E-003
-1.780000030994415E-001	-1.594384666532278E-003
-1.770000159740448E-001	-1.593027031049132E-003
-1.760000139474869E-001	-1.591672888025641E-003
-1.750000119209290E-001	-1.590322237461805E-003
-1.740000098943710E-001	-1.588974962942302E-003
-1.730000078678131E-001	-1.587631064467132E-003
-1.720000058412552E-001	-1.586290658451617E-003
-1.710000038146973E-001	-1.584953512065113E-003
-1.700000166893005E-001	-1.583619741722941E-003
-1.690000146627426E-001	-1.582289347425103E-003
-1.680000126361847E-001	-1.580962329171598E-003
-1.670000106096268E-001	-1.579638570547104E-003
-1.660000085830688E-001	-1.578318071551621E-003
-1.650000065565109E-001	-1.577000948600471E-003
-1.640000045299530E-001	-1.575686968863010E-003
-1.630000025033951E-001	-1.574376248754561E-003
-1.620000153779984E-001	-1.573068904690444E-003
-1.610000133514404E-001	-1.571764587424695E-003
-1.600000113248825E-001	-1.570463646203280E-003
-1.590000092983246E-001	-1.569165731780231E-003
-1.580000072717667E-001	-1.567871076986194E-003
-1.570000052452087E-001	-1.566579565405846E-003
-1.560000032186508E-001	-1.565291197039187E-003
-1.550000160932541E-001	-1.564005971886218E-003
-1.540000140666962E-001	-1.562723889946938E-003
-1.530000120401382E-001	-1.561444834806025E-003
-1.520000100135803E-001	-1.560168806463480E-003
-1.510000079870224E-001	-1.558895921334624E-003
-1.500000059604645E-001	-1.557626063004136E-003
-1.490000039339066E-001	-1.556359231472015E-003
-1.480000168085098E-001	-1.555095310322940E-003
-1.470000147819519E-001	-1.553834532387555E-003
-1.460000127553940E-001	-1.552576664835215E-003
-1.450000107288361E-001	-1.551321824081242E-003
-1.440000087022781E-001	-1.550069893710315E-003
-1.430000066757202E-001	-1.548820873722434E-003
-1.420000046491623E-001	-1.547574764117599E-003
-1.410000026226044E-001	-1.546331564895809E-003
-1.400000154972076E-001	-1.545091276057065E-003
-1.390000134706497E-001	-1.543853781186044E-003
-1.380000114440918E-001	-1.542619196698070E-003
-1.370000094175339E-001	-1.541387522593141E-003
-1.360000073909760E-001	-1.540158526040614E-003
-1.350000053644180E-001	-1.538932439871132E-003
-1.340000033378601E-001	-1.537709031254053E-003
-1.330000162124634E-001	-1.536488533020020E-003
-1.320000141859055E-001	-1.535270595923066E-003
-1.310000121593475E-001	-1.534055569209158E-003
-1.300000101327896E-001	-1.532843103632331E-003
-1.290000081062317E-001	-1.531633432023227E-003
-1.280000060796738E-001	-1.530426437966526E-003
-1.270000040531158E-001	-1.529222005046904E-003
-1.260000020265579E-001	-1.528020249679685E-003
-1.250000149011612E-001	-1.526821171864867E-003
-1.240000128746033E-001	-1.525624655187130E-003
-1.230000108480453E-001	-1.524430699646473E-003
-1.220000088214874E-001	-1.523239421658218E-003
-1.210000067949295E-001	-1.522050588391721E-003
-1.200000122189522E-001	-1.520864316262305E-003
-1.190000101923943E-001	-1.519680488854647E-003
-1.180000081658363E-001	-1.518499106168747E-003
-1.170000061392784E-001	-1.517320284619927E-003
-1.160000115633011E-001	-1.516143907792866E-003
-1.150000095367432E-001	-1.514969859272242E-003
-1.140000075101852E-001	-1.513798255473375E-003
-1.130000054836273E-001	-1.512628979980946E-003
-1.120000109076500E-001	-1.511462149210274E-003
-1.110000088810921E-001	-1.510297530330718E-003
-1.100000068545341E-001	-1.509135356172919E-003
-1.090000122785568E-001	-1.507975277490914E-003
-1.080000102519989E-001	-1.506817643530667E-003
-1.070000082254410E-001	-1.505662105046213E-003
-1.060000061988831E-001	-1.504508778452873E-003
-1.050000116229057E-001	-1.503357663750649E-003
-1.040000095963478E-001	-1.502208644524217E-003
-1.030000075697899E-001	-1.501061837188900E-003
-1.020000055432320E-001	-1.499917008914053E-003
-1.010000109672546E-001	-1.498774276115000E-003
-1.000000089406967E-001	-1.497633638791740E-003
-9.900000691413879E-002	-1.496494980528951E-003
-9.800001233816147E-002	-1.495358184911311E-003
-9.700001031160355E-002	-1.494223484769464E-003
-9.600000828504562E-002	-1.493090530857444E-003
-9.500000625848770E-002	-1.491959556005895E-003
-9.400001168251038E-002	-1.490830327384174E-003
-9.300000965595245E-002	-1.489702961407602E-003
-9.200000762939453E-002	-1.488577341660857E-003
-9.100000560283661E-002	-1.487453468143940E-003
-9.000001102685928E-002	-1.486331224441528E-003
-8.900000900030136E-002	-1.485210726968944E-003
-8.800000697374344E-002	-1.484091742895544E-003
-8.700001239776611E-002	-1.482974272221327E-003
-8.600001037120819E-002	-1.481858431361616E-003
-8.500000834465027E-002	-1.480743987485766E-003
-8.400000631809235E-002	-1.479631057009101E-003
-8.300001174211502E-002	-1.478519407100976E-003
-8.200000971555710E-002	-1.477409154176712E-003
-8.100000768899918E-002	-1.476300065405667E-003
-8.000000566244125E-002	-1.475192257203162E-003
-7.900001108646393E-002	-1.474085613153875E-003
-7.800000905990601E-002	-1.472980133257806E-003
-7.700000703334808E-002	-1.471875701099634E-003
-7.600000500679016E-002	-1.470772200264037E-003
-7.500001043081284E-002	-1.469669630751014E-003
-7.400000840425491E-002	-1.468567992560565E-003
-7.300000637769699E-002	-1.467467169277370E-003
-7.200001180171967E-002	-1.466367044486105E-003
-7.100000977516174E-002	-1.465267501771450E-003
-7.000000774860382E-002	-1.464168657548726E-003
-6.900000572204590E-002	-1.463070278987288E-003
-6.800001114606857E-002	-1.461972366087139E-003
-6.700000911951065E-002	-1.460874686017632E-003
-6.600000709295273E-002	-1.459777471609414E-003
-6.500000506639481E-002	-1.458680257201195E-003
-6.400001049041748E-002	-1.457583275623620E-003
-6.300000846385956E-002	-1.456486177630723E-003
-6.200001016259193E-002	-1.455389079637825E-003
-6.100000813603401E-002	-1.454291748814285E-003
-6.000000983476639E-002	-1.453194068744779E-003
-5.900000780820847E-002	-1.452096039429307E-003
-5.800000950694084E-002	-1.450997428037226E-003
-5.700000748038292E-002	-1.449898234568536E-003
-5.600000917911530E-002	-1.448798342607915E-003
-5.500000715255737E-002	-1.447697519324720E-003
-5.400000885128975E-002	-1.446595648303628E-003
-5.300000682473183E-002	-1.445492613129318E-003
-5.200000852346420E-002	-1.444388413801789E-003
-5.100000649690628E-002	-1.443282701075077E-003
-5.000000819563866E-002	-1.442175474949181E-003
-4.900000989437103E-002	-1.441066502593458E-003
-4.800000786781311E-002	-1.439955551177263E-003
-4.700000956654549E-002	-1.438842620700598E-003
-4.600000753998756E-002	-1.437727478332818E-003
-4.500000923871994E-002	-1.436610007658601E-003
-4.400000721216202E-002	-1.435489859431982E-003
-4.300000891089439E-002	-1.434366917237639E-003
-4.200000688433647E-002	-1.433240948244929E-003
-4.100000858306885E-002	-1.432111952453852E-003
-4.000000655651093E-002	-1.430979464203119E-003
-3.900000825524330E-002	-1.429843250662088E-003
-3.800000622868538E-002	-1.428703311830759E-003
-3.700000792741776E-002	-1.427559182047844E-003
-3.600000962615013E-002	-1.426410744898021E-003
-3.500000759959221E-002	-1.425257767550647E-003
-3.400000929832459E-002	-1.424099784344435E-003
-3.300000727176666E-002	-1.422936678864062E-003
-3.200000897049904E-002	-1.421768218278885E-003
-3.100000880658627E-002	-1.420593936927617E-003
-3.000000864267349E-002	-1.419413485564291E-003
-2.900000847876072E-002	-1.418226747773588E-003
-2.800000831484795E-002	-1.417033257894218E-003
-2.700000815093517E-002	-1.415832666680217E-003
-2.600000798702240E-002	-1.414624624885619E-003
-2.500000782310963E-002	-1.413408783264458E-003
-2.400000765919685E-002	-1.412184792570770E-003
-2.300000749528408E-002	-1.410952070727944E-003
-2.200000733137131E-002	-1.409710268490016E-003
-2.100000716745853E-002	-1.408459036611021E-003
-2.000000700354576E-002	-1.407197793014348E-003
-1.900000683963299E-002	-1.405926188454032E-003
-1.800000853836536E-002	-1.404643640853465E-003
-1.700000837445259E-002	-1.403349568136036E-003
-1.600000821053982E-002	-1.402043621055782E-003
-1.500000804662704E-002	-1.400725101120770E-003
-1.400000788271427E-002	-1.399393542669714E-003
-1.300000771880150E-002	-1.398048130795360E-003
-1.200000755488873E-002	-1.396688516251743E-003
-1.100000739097595E-002	-1.395313884131610E-003
-1.000000722706318E-002	-1.393923652358353E-003
-9.000007994472981E-003	-1.392517006024718E-003
-8.000007830560207E-003	-1.391093363054097E-003
-7.000007666647434E-003	-1.389651908539236E-003
-6.000007502734661E-003	-1.388191827572882E-003
-5.000007338821888E-003	-1.386712305247784E-003
-4.000007640570402E-003	-1.385212526656687E-003
-3.000007476657629E-003	-1.383691676892340E-003
-2.000007545575500E-003	-1.382148824632168E-003
-1.000007498078048E-003	-1.380582805722952E-003
-7.450580596923828E-009	-1.378992921672761E-003
9.999925969168544E-004	-1.377378124743700E-003
1.999992644414306E-003	-1.375737134367228E-003
2.999992575496435E-003	-1.374069019220769E-003
3.999992739409208E-003	-1.372372731566429E-003
4.999992437660694E-003	-1.370646758005023E-003
5.999992601573467E-003	-1.368890167213976E-003
6.999992765486240E-003	-1.367101562209427E-003
7.999992929399014E-003	-1.365279662422836E-003
8.999993093311787E-003	-1.363422954455018E-003
9.999992325901985E-003	-1.361530041322112E-003
1.099999248981476E-002	-1.359599642455578E-003
1.199999265372753E-002	-1.357629895210266E-003
1.299999281764030E-002	-1.355619402602315E-003
1.399999298155308E-002	-1.353566301986575E-003
1.499999314546585E-002	-1.351469079963863E-003
1.599999330937862E-002	-1.349325757473707E-003
1.699999347329140E-002	-1.347134588286281E-003
1.799999363720417E-002	-1.344893593341112E-003
1.899999193847179E-002	-1.342600677162409E-003
1.999999210238457E-002	-1.340253744274378E-003
2.099999226629734E-002	-1.337850699201226E-003
2.199999243021011E-002	-1.335389213636518E-003
2.299999259412289E-002	-1.332866959273815E-003
2.399999275803566E-002	-1.330281607806683E-003
2.499999292194843E-002	-1.327630365267396E-003
2.599999308586121E-002	-1.324910903349519E-003
2.699999324977398E-002	-1.322120311670005E-003
2.799999341368675E-002	-1.319255796261132E-003
2.899999357759953E-002	-1.316314330324531E-003
2.999999374151230E-002	-1.313293119892478E-003
3.099999390542507E-002	-1.310188788920641E-003
3.199999406933784E-002	-1.306998077780008E-003
3.299999237060547E-002	-1.303717610426247E-003
3.399999439716339E-002	-1.300343777984381E-003
3.499999269843102E-002	-1.296873087994754E-003
3.599999472498894E-002	-1.293301582336426E-003
3.699999302625656E-002	-1.289625419303775E-003
3.799999132752419E-002	-1.285840407945216E-003
3.899999335408211E-002	-1.281942357309163E-003
3.999999165534973E-002	-1.277926960028708E-003
4.099999368190765E-002	-1.273789443075657E-003
4.199999198317528E-002	-1.269525266252458E-003
4.299999400973320E-002	-1.265129423700273E-003
4.399999231100082E-002	-1.260596793144941E-003
4.499999433755875E-002	-1.255922252312303E-003
4.599999263882637E-002	-1.251100213266909E-003
4.699999466538429E-002	-1.246125204488635E-003
4.799999296665192E-002	-1.240991055965424E-003
4.899999499320984E-002	-1.235691946931183E-003
4.999999329447746E-002	-1.230221590958536E-003
5.099999159574509E-002	-1.224573352374136E-003
5.199999362230301E-002	-1.218740595504642E-003
5.299999192357063E-002	-1.212716335430741E-003
5.399999395012856E-002	-1.206493237987161E-003
5.499999225139618E-002	-1.200064085423946E-003
5.599999427795410E-002	-1.193420845083892E-003
5.699999257922173E-002	-1.186555717140436E-003
5.799999460577965E-002	-1.179460319690406E-003
5.899999290704727E-002	-1.172126270830631E-003
5.999999493360519E-002	-1.164544606581330E-003
6.099999323487282E-002	-1.156706246547401E-003
6.199999526143074E-002	-1.148601761087775E-003
6.299999356269836E-002	-1.140221371315420E-003
6.399999558925629E-002	-1.131554949097335E-003
6.499999016523361E-002	-1.122592249885201E-003
6.599999219179153E-002	-1.113322563469410E-003
6.699999421834946E-002	-1.103734713979065E-003
6.799999624490738E-002	-1.093817409127951E-003
6.899999082088470E-002	-1.083558774553239E-003
6.999999284744263E-002	-1.072946703061461E-003
7.099999487400055E-002	-1.061968854628503E-003
7.199999690055847E-002	-1.050612190738320E-003
7.299999147653580E-002	-1.038863556459546E-003
7.399999350309372E-002	-1.026709331199527E-003
7.499999552965164E-002	-1.014135428704321E-003
7.599999010562897E-002	-1.001127646304667E-003
7.699999213218689E-002	-9.876709664240479E-004
7.799999415874481E-002	-9.737501968629658E-004
7.899999618530273E-002	-9.593498543836176E-004
7.999999076128006E-002	-9.444538154639304E-004
8.099999278783798E-002	-9.290457237511873E-004
8.199999481439590E-002	-9.131087572313845E-004
8.299999684095383E-002	-8.966256282292306E-004
8.399999141693115E-002	-8.795788162387908E-004
8.499999344348907E-002	-8.619501604698598E-004
8.599999547004700E-002	-8.437213255092502E-004
8.699999749660492E-002	-8.248735102824867E-004
8.799999207258224E-002	-8.053875062614679E-004
8.899999409914017E-002	-7.852436974644661E-004
8.999999612569809E-002	-7.644222932867706E-004
9.099999070167542E-002	-7.429029792547226E-004
9.199999272823334E-002	-7.206651498563588E-004
9.299999475479126E-002	-6.976879085414112E-004
9.399999678134918E-002	-6.739501841366291E-004
9.499999135732651E-002	-6.494303815998137E-004
9.599999338388443E-002	-6.241069640964270E-004
9.699999541044235E-002	-5.979579291306436E-004
9.799999743700027E-002	-5.709612742066383E-004
9.899999201297760E-002	-5.430947639979422E-004
9.999999403953552E-002	-5.143361049704254E-004
1.009999960660934E-001	-4.846628580708057E-004
1.019999906420708E-001	-4.540527006611228E-004
1.029999926686287E-001	-4.224832227919251E-004
1.039999946951866E-001	-3.899322182405740E-004
1.049999967217445E-001	-3.563775098882616E-004
1.059999912977219E-001	-3.217971825506538E-004
1.069999933242798E-001	-2.861696411855519E-004
1.079999953508377E-001	-2.494735817890614E-004
1.089999973773956E-001	-2.116881078109145E-004
1.099999919533730E-001	-1.727929047774524E-004
1.109999939799309E-001	-1.327681820839643E-004
1.119999960064888E-001	-9.159486216958612E-005
1.129999905824661E-001	-4.925463144900277E-005
1.139999926090240E-001	-5.730058546760120E-006
1.149999946355820E-001	3.899530202033930E-005
1.159999966621399E-001	8.493680797982961E-005
1.169999912381172E-001	1.321086165262386E-004
1.179999932646751E-001	1.805235369829461E-004
1.189999952912331E-001	2.301929634995759E-004
1.199999973177910E-001	2.811267040669918E-004
1.209999918937683E-001	3.333328349981457E-004
1.219999939203262E-001	3.868176718242466E-004
1.229999959468842E-001	4.415854928083718E-004
1.239999979734421E-001	4.976384807378054E-004
1.249999925494194E-001	5.549766356125474E-004
1.259999871253967E-001	6.135974545031786E-004
1.269999891519547E-001	6.734960479661822E-004
1.279999911785126E-001	7.346647907979786E-004
1.289999932050705E-001	7.970932638272643E-004
1.299999952316284E-001	8.607681374996901E-004
1.309999972581863E-001	9.256730554625392E-004
1.319999992847443E-001	9.917883435264230E-004
1.330000013113022E-001	1.059091417118907E-003
1.339999884366989E-001	1.127555733546615E-003
1.349999904632568E-001	1.197151606902480E-003
1.359999924898148E-001	1.267845625989139E-003
1.369999945163727E-001	1.339600887149572E-003
1.379999965429306E-001	1.412376412190497E-003
1.389999985694885E-001	1.486127614043653E-003
1.400000005960464E-001	1.560806180350482E-003
1.409999877214432E-001	1.636359607800841E-003
1.419999897480011E-001	1.712731900624931E-003
1.429999917745590E-001	1.789862755686045E-003
1.439999938011169E-001	1.867688493803144E-003
1.449999958276749E-001	1.946141361258924E-003
1.459999978542328E-001	2.025150228291750E-003
1.469999998807907E-001	2.104639774188399E-003
1.480000019073486E-001	2.184532117098570E-003
1.489999890327454E-001	2.264745067805052E-003
1.499999910593033E-001	2.345193643122911E-003
1.509999930858612E-001	2.425790531560779E-003
1.519999951124191E-001	2.506444696336985E-003
1.529999971389771E-001	2.587063005194068E-003
1.539999991655350E-001	2.667550230398774E-003
1.550000011920929E-001	2.747808815911412E-003
1.559999883174896E-001	2.827739808708429E-003
1.569999903440475E-001	2.907242858782411E-003
1.579999923706055E-001	2.986216451972723E-003
1.589999943971634E-001	3.064558608457446E-003
1.599999964237213E-001	3.142166882753372E-003
1.609999984502792E-001	3.218939062207937E-003
1.620000004768372E-001	3.294773166999221E-003
1.629999876022339E-001	3.369568148627877E-003
1.639999896287918E-001	3.443224588409066E-003
1.649999916553497E-001	3.515644231811166E-003
1.659999936819077E-001	3.586730919778347E-003
1.669999957084656E-001	3.656391054391861E-003
1.679999977350235E-001	3.724533598870039E-003
1.689999997615814E-001	3.791071008890867E-003
1.700000017881393E-001	3.855918766930699E-003
1.709999889135361E-001	3.918996546417475E-003
1.719999909400940E-001	3.980227746069431E-003
1.729999929666519E-001	4.039540886878967E-003
1.739999949932098E-001	4.096868913620710E-003
1.749999970197678E-001	4.152148496359587E-003
1.759999990463257E-001	4.205323290079832E-003
1.770000010728836E-001	4.256340675055981E-003
1.779999881982803E-001	4.305155016481876E-003
1.789999902248383E-001	4.351724870502949E-003
1.799999922513962E-001	4.396015312522650E-003
1.809999942779541E-001	4.437996074557304E-003
1.819999963045120E-001	4.477644339203835E-003
1.829999983310699E-001	4.514941480010748E-003
1.840000003576279E-001	4.549874924123287E-003
1.850000023841858E-001	4.582438152283430E-003
1.859999895095825E-001	4.612629301846027E-003
1.869999915361404E-001	4.640453495085239E-003
1.879999935626984E-001	4.665919579565525E-003
1.889999955892563E-001	4.689041525125504E-003
1.899999976158142E-001	4.709839355200529E-003
1.909999996423721E-001	4.728336818516254E-003
1.920000016689301E-001	4.744562320411205E-003
1.929999887943268E-001	4.758548922836781E-003
1.939999908208847E-001	4.770332481712103E-003
1.949999928474426E-001	4.779953975230455E-003
1.959999948740005E-001	4.787456709891558E-003
1.969999969005585E-001	4.792887717485428E-003
1.979999989271164E-001	4.796297289431095E-003
1.990000009536743E-001	4.797737114131451E-003
1.999999880790710E-001	4.797261673957109E-003
2.009999901056290E-001	4.794928710907698E-003
2.019999921321869E-001	4.790795501321554E-003
2.029999941587448E-001	4.784922581166029E-003
2.039999961853027E-001	4.777371417731047E-003
2.049999982118607E-001	4.768203943967819E-003
2.060000002384186E-001	4.757482558488846E-003
2.070000022649765E-001	4.745271522551775E-003
2.079999893903732E-001	4.731633700430393E-003
2.089999914169312E-001	4.716633819043636E-003
2.099999934434891E-001	4.700334742665291E-003
2.109999954700470E-001	4.682799801230431E-003
2.119999974966049E-001	4.664092790335417E-003
2.129999995231628E-001	4.644274711608887E-003
2.140000015497208E-001	4.623407498002052E-003
2.149999886751175E-001	4.601551685482264E-003
2.159999907016754E-001	4.578766413033009E-003
2.169999927282333E-001	4.555110353976488E-003
2.179999947547913E-001	4.530640784651041E-003
2.189999967813492E-001	4.505412653088570E-003
2.199999988079071E-001	4.479480441659689E-003
2.210000008344650E-001	4.452896770089865E-003
2.220000028610229E-001	4.425713326781988E-003
2.229999899864197E-001	4.397979937493801E-003
2.239999920129776E-001	4.369743634015322E-003
2.249999940395355E-001	4.341051913797855E-003
2.259999960660934E-001	4.311949014663696E-003
2.269999980926514E-001	4.282477777451277E-003
2.280000001192093E-001	4.252680111676455E-003
2.290000021457672E-001	4.222595132887363E-003
2.299999892711639E-001	4.192261025309563E-003
2.309999912977219E-001	4.161714576184750E-003
2.319999933242798E-001	4.130990244448185E-003
2.329999953508377E-001	4.100121557712555E-003
2.339999973773956E-001	4.069139249622822E-003
2.349999994039536E-001	4.038074053823948E-003
2.360000014305115E-001	4.006953909993172E-003
2.370000034570694E-001	3.975805826485157E-003
2.379999905824661E-001	3.944655880331993E-003
2.389999926090240E-001	3.913527820259333E-003
2.399999946355820E-001	3.882443765178323E-003
2.409999966621399E-001	3.851426066830754E-003
2.419999986886978E-001	3.820494282990694E-003
2.430000007152557E-001	3.789667505770922E-003
2.440000027418137E-001	3.758962964639068E-003
2.449999898672104E-001	3.728397656232119E-003
2.459999918937683E-001	3.697986481711268E-003
2.469999939203262E-001	3.667744109407067E-003
2.479999959468842E-001	3.637683345004916E-003
2.489999979734421E-001	3.607816994190216E-003
2.500000000000000E-001	3.578156000003219E-003
2.509999871253967E-001	3.548711072653532E-003
2.520000040531158E-001	3.519491292536259E-003
2.529999911785126E-001	3.490505972877145E-003
2.540000081062317E-001	3.461762564256787E-003
2.549999952316284E-001	3.433268517255783E-003
2.559999823570251E-001	3.405030583962798E-003
2.569999992847443E-001	3.377054119482636E-003
2.579999864101410E-001	3.349344478920102E-003
2.590000033378601E-001	3.321906318888068E-003
2.599999904632568E-001	3.294743597507477E-003
2.610000073909760E-001	3.267859807237983E-003
2.619999945163727E-001	3.241258207708597E-003
2.629999816417694E-001	3.214940661564469E-003
2.639999985694885E-001	3.188909729942679E-003
2.649999856948853E-001	3.163166809827089E-003
2.660000026226044E-001	3.137713065370917E-003
2.669999897480011E-001	3.112549660727382E-003
2.680000066757202E-001	3.087676595896482E-003
2.689999938011169E-001	3.063094336539507E-003
2.700000107288361E-001	3.038802882656455E-003
2.709999978542328E-001	3.014801535755396E-003
2.719999849796295E-001	2.991089830175042E-003
2.730000019073486E-001	2.967666601762176E-003
2.739999890327454E-001	2.944530686363578E-003
2.750000059604645E-001	2.921680919826031E-003
2.759999930858612E-001	2.899115672335029E-003
2.770000100135803E-001	2.876833081245422E-003
2.779999971389771E-001	2.854831283912063E-003
2.789999842643738E-001	2.833108184859157E-003
2.800000011920929E-001	2.811661455780268E-003
2.809999883174896E-001	2.790489001199603E-003
2.820000052452087E-001	2.769588492810726E-003
2.829999923706055E-001	2.748956903815269E-003
2.840000092983246E-001	2.728591905906796E-003
2.849999964237213E-001	2.708490705117583E-003
2.859999835491180E-001	2.688650507479906E-003
2.870000004768372E-001	2.669068286195397E-003
2.879999876022339E-001	2.649741247296333E-003
2.890000045299530E-001	2.630666363984346E-003
2.899999916553497E-001	2.611840842291713E-003
2.910000085830688E-001	2.593261189758778E-003
2.919999957084656E-001	2.574924379587173E-003
2.929999828338623E-001	2.556827617809176E-003
2.939999997615814E-001	2.538967644795775E-003
2.949999868869781E-001	2.521340968087316E-003
2.960000038146973E-001	2.503944793716073E-003
2.969999909400940E-001	2.486775862053037E-003
2.980000078678131E-001	2.469830680638552E-003
2.989999949932098E-001	2.453106688335538E-003
3.000000119209290E-001	2.436600159853697E-003
3.009999990463257E-001	2.420308068394661E-003
3.019999861717224E-001	2.404227619990706E-003
3.030000030994415E-001	2.388355089351535E-003
3.039999902248383E-001	2.372687915340066E-003
3.050000071525574E-001	2.357222838327289E-003
3.059999942779541E-001	2.341956365853548E-003
3.070000112056732E-001	2.326886169612408E-003
3.079999983310699E-001	2.312008524313569E-003
3.089999854564667E-001	2.297321101650596E-003
3.100000023841858E-001	2.282820176333189E-003
3.109999895095825E-001	2.268503652885556E-003
3.120000064373016E-001	2.254367806017399E-003
3.129999935626984E-001	2.240410540252924E-003
3.140000104904175E-001	2.226628363132477E-003
3.149999976158142E-001	2.213018713518977E-003
3.159999847412109E-001	2.199579030275345E-003
3.170000016689301E-001	2.186306286603212E-003
3.179999887943268E-001	2.173197921365500E-003
3.190000057220459E-001	2.160251140594482E-003
3.199999928474426E-001	2.147463383153081E-003
3.210000097751617E-001	2.134832087904215E-003
3.219999969005585E-001	2.122354926541448E-003
3.229999840259552E-001	2.110028872266412E-003
3.240000009536743E-001	2.097851829603314E-003
3.249999880790710E-001	2.085821237415075E-003
3.260000050067902E-001	2.073934767395258E-003
3.269999921321869E-001	2.062189858406782E-003
3.280000090599060E-001	2.050584647804499E-003
3.289999961853027E-001	2.039116108790040E-003
3.299999833106995E-001	2.027782611548901E-003
3.310000002384186E-001	2.016581827774644E-003
3.319999873638153E-001	2.005511429160833E-003
3.330000042915344E-001	1.994569320231676E-003
3.339999914169312E-001	1.983753172680736E-003
3.350000083446503E-001	1.973061356693506E-003
3.359999954700470E-001	1.962491776794195E-003
3.370000123977661E-001	1.952041988261044E-003
3.379999995231628E-001	1.941710477694869E-003
3.389999866485596E-001	1.931495149619877E-003
3.400000035762787E-001	1.921394141390920E-003
3.409999907016754E-001	1.911405473947525E-003
3.420000076293945E-001	1.901527517475188E-003
3.429999947547913E-001	1.891758292913437E-003
3.440000116825104E-001	1.882096170447767E-003
3.449999988079071E-001	1.872539287433028E-003
3.459999859333038E-001	1.863086130470037E-003
3.470000028610229E-001	1.853734836913645E-003
3.479999899864197E-001	1.844483893364668E-003
3.490000069141388E-001	1.835331670008600E-003
3.499999940395355E-001	1.826276537030935E-003
3.510000109672546E-001	1.817316981032491E-003
3.519999980926514E-001	1.808451372198761E-003
3.529999852180481E-001	1.799678429961205E-003
3.540000021457672E-001	1.790996640920639E-003
3.549999892711639E-001	1.782404375262558E-003
3.560000061988831E-001	1.773900468833745E-003
3.569999933242798E-001	1.765483291819692E-003
3.580000102519989E-001	1.757151680067182E-003
3.589999973773956E-001	1.748904236592352E-003
3.599999845027924E-001	1.740739680826664E-003
3.610000014305115E-001	1.732656732201576E-003
3.619999885559082E-001	1.724653993733227E-003
3.630000054836273E-001	1.716730417683721E-003
3.639999926090240E-001	1.708884607069194E-003
3.650000095367432E-001	1.701115514151752E-003
3.659999966621399E-001	1.693421974778175E-003
3.669999837875366E-001	1.685802824795246E-003
3.680000007152557E-001	1.678256783634424E-003
3.689999878406525E-001	1.670783036388457E-003
3.700000047683716E-001	1.663380186073482E-003
3.709999918937683E-001	1.656047417782247E-003
3.720000088214874E-001	1.648783567361534E-003
3.729999959468842E-001	1.641587703488767E-003
3.740000128746033E-001	1.634458778426051E-003
3.750000000000000E-001	1.627395628020167E-003
3.759999871253967E-001	1.620397553779185E-003
3.770000040531158E-001	1.613463507965207E-003
3.779999911785126E-001	1.606592559255660E-003
3.790000081062317E-001	1.599783776327968E-003
3.799999952316284E-001	1.593036227859557E-003
3.810000121593475E-001	1.586349215358496E-003
3.819999992847443E-001	1.579721574671566E-003
3.829999864101410E-001	1.573152723722160E-003
3.840000033378601E-001	1.566641731187701E-003
3.849999904632568E-001	1.560187782160938E-003
3.860000073909760E-001	1.553789945319295E-003
3.869999945163727E-001	1.547447755001485E-003
3.880000114440918E-001	1.541160163469613E-003
3.889999985694885E-001	1.534926472231746E-003
3.899999856948853E-001	1.528745866380632E-003
3.910000026226044E-001	1.522617880254984E-003
3.919999897480011E-001	1.516541466116905E-003
3.930000066757202E-001	1.510516158305109E-003
3.939999938011169E-001	1.504541258327663E-003
3.950000107288361E-001	1.498615834861994E-003
3.959999978542328E-001	1.492739538662136E-003
3.969999849796295E-001	1.486911554820836E-003
3.980000019073486E-001	1.481131184846163E-003
3.989999890327454E-001	1.475397846661508E-003
4.000000059604645E-001	1.469711074605584E-003
4.009999930858612E-001	1.464069937355816E-003
4.020000100135803E-001	1.458474202081561E-003
4.029999971389771E-001	1.452922937460244E-003
4.039999842643738E-001	1.447415910661221E-003
4.050000011920929E-001	1.441952190361917E-003
4.059999883174896E-001	1.436531543731689E-003
4.070000052452087E-001	1.431153155863285E-003
4.079999923706055E-001	1.425816677510738E-003
4.090000092983246E-001	1.420521410182118E-003
4.099999964237213E-001	1.415267004631460E-003
4.110000133514404E-001	1.410052878782153E-003
4.120000004768372E-001	1.404878566972911E-003
4.129999876022339E-001	1.399743487127125E-003
4.140000045299530E-001	1.394647173583508E-003
4.149999916553497E-001	1.389589277096093E-003
4.160000085830688E-001	1.384569099172950E-003
4.169999957084656E-001	1.379586406983435E-003
4.180000126361847E-001	1.374640618450940E-003
4.189999997615814E-001	1.369731267914176E-003
4.199999868869781E-001	1.364858006127179E-003
4.210000038146973E-001	1.360020367428660E-003
4.219999909400940E-001	1.355217886157334E-003
4.230000078678131E-001	1.350450213067234E-003
4.239999949932098E-001	1.345716882497072E-003
4.250000119209290E-001	1.341017428785563E-003
4.259999990463257E-001	1.336351619102061E-003
4.269999861717224E-001	1.331718987785280E-003
4.280000030994415E-001	1.327119185589254E-003
4.289999902248383E-001	1.322551630437374E-003
4.300000071525574E-001	1.318016322329640E-003
4.309999942779541E-001	1.313512562774122E-003
4.320000112056732E-001	1.309040118940175E-003
4.329999983310699E-001	1.304598525166512E-003
4.339999854564667E-001	1.300187665037811E-003
4.350000023841858E-001	1.295807072892785E-003
4.359999895095825E-001	1.291456399485469E-003
4.370000064373016E-001	1.287135295569897E-003
4.379999935626984E-001	1.282843411900103E-003
4.390000104904175E-001	1.278580515645444E-003
4.399999976158142E-001	1.274346257559955E-003
4.409999847412109E-001	1.270140288397670E-003
4.420000016689301E-001	1.265962258912623E-003
4.429999887943268E-001	1.261812052689493E-003
4.440000057220459E-001	1.257689087651670E-003
4.449999928474426E-001	1.253593363799155E-003
4.460000097751617E-001	1.249524415470660E-003
4.469999969005585E-001	1.245482009835541E-003
4.480000138282776E-001	1.241465797647834E-003
4.490000009536743E-001	1.237475662492216E-003
4.499999880790710E-001	1.233511138707399E-003
4.510000050067902E-001	1.229572109878063E-003
4.519999921321869E-001	1.225658226758242E-003
4.530000090599060E-001	1.221769256517291E-003
4.539999961853027E-001	1.217904966324568E-003
4.550000131130219E-001	1.214065006934106E-003
4.560000002384186E-001	1.210249261930585E-003
4.569999873638153E-001	1.206457382068038E-003
4.580000042915344E-001	1.202689250931144E-003
4.589999914169312E-001	1.198944402858615E-003
4.600000083446503E-001	1.195222837850451E-003
4.609999954700470E-001	1.191524206660688E-003
4.620000123977661E-001	1.187848276458681E-003
4.629999995231628E-001	1.184194814413786E-003
4.639999866485596E-001	1.180563704110682E-003
4.650000035762787E-001	1.176954712718725E-003
4.659999907016754E-001	1.173367374576628E-003
4.670000076293945E-001	1.169801806099713E-003
4.679999947547913E-001	1.166257658042014E-003
4.690000116825104E-001	1.162734697572887E-003
4.699999988079071E-001	1.159232691861689E-003
4.709999859333038E-001	1.155751640908420E-003
4.720000028610229E-001	1.152291079051793E-003
4.729999899864197E-001	1.148851006291807E-003
4.740000069141388E-001	1.145431073382497E-003
4.749999940395355E-001	1.142031163908541E-003
4.760000109672546E-001	1.138651161454618E-003
4.769999980926514E-001	1.135290716774762E-003
4.779999852180481E-001	1.131949829868972E-003
4.790000021457672E-001	1.128628267906606E-003
4.799999892711639E-001	1.125325681641698E-003
4.810000061988831E-001	1.122042187489569E-003
4.819999933242798E-001	1.118777319788933E-003
4.830000102519989E-001	1.115531194955111E-003
4.839999973773956E-001	1.112303347326815E-003
4.850000143051147E-001	1.109093776904047E-003
4.860000014305115E-001	1.105902367271483E-003
4.869999885559082E-001	1.102728769183159E-003
4.880000054836273E-001	1.099573099054396E-003
4.889999926090240E-001	1.096434891223907E-003
4.900000095367432E-001	1.093314145691693E-003
4.909999966621399E-001	1.090210746042430E-003
4.920000135898590E-001	1.087124459445477E-003
4.930000007152557E-001	1.084055285900831E-003
4.939999878406525E-001	1.081002759747207E-003
4.950000047683716E-001	1.077967113815248E-003
4.959999918937683E-001	1.074947882443666E-003
4.970000088214874E-001	1.071945065632463E-003
4.979999959468842E-001	1.068958546966314E-003
4.990000128746033E-001	1.065988210029900E-003
