Ewe/V	I/mA
5.000000000000000E-001	0.000000000000000E+000
4.990000128746033E-001	-3.393184044853115E-007
4.979999959468842E-001	-7.168591764639132E-008
4.970000088214874E-001	-1.244086433871416E-007
4.959999918937683E-001	-9.163942848999795E-008
4.950000047683716E-001	-9.445894022519497E-008
4.939999878406525E-001	-8.920174110471635E-008
4.930000007152557E-001	-8.875688450871166E-008
4.920000135898590E-001	-8.812845209149600E-008
4.909999966621399E-001	-8.855444377786625E-008
4.900000095367432E-001	-8.938126683233349E-008
4.889999926090240E-001	-9.066929607115526E-008
4.880000054836273E-001	-9.229604103211386E-008
4.869999885559082E-001	-9.423204971881205E-008
4.860000014305115E-001	-9.643846965445846E-008
4.850000143051147E-001	-9.889393481898878E-008
4.839999973773956E-001	-1.015813708704627E-007
4.830000102519989E-001	-1.044895441282279E-007
4.819999933242798E-001	-1.076106599384730E-007
4.810000061988831E-001	-1.109398652943128E-007
4.799999892711639E-001	-1.144745098713429E-007
4.790000021457672E-001	-1.182137054911436E-007
4.779999852180481E-001	-1.221580276933310E-007
4.769999980926514E-001	-1.263092457293169E-007
4.760000109672546E-001	-1.306701875591898E-007
4.749999940395355E-001	-1.352445195834662E-007
4.740000069141388E-001	-1.400367466430907E-007
4.729999899864197E-001	-1.450520557000345E-007
4.720000028610229E-001	-1.502962874155855E-007
4.709999859333038E-001	-1.557758935177844E-007
4.699999988079071E-001	-1.614978799580058E-007
4.690000116825104E-001	-1.674698069109581E-007
4.679999947547913E-001	-1.736997887746838E-007
4.670000076293945E-001	-1.801964231162856E-007
4.659999907016754E-001	-1.869688333044905E-007
4.650000035762787E-001	-1.940266827205051E-007
4.639999866485596E-001	-2.013800894928863E-007
4.629999995231628E-001	-2.090397401843802E-007
4.620000123977661E-001	-2.170168045267928E-007
4.609999954700470E-001	-2.253230348969737E-007
4.600000083446503E-001	-2.339706668408326E-007
4.589999914169312E-001	-2.429725611818867E-007
4.580000042915344E-001	-2.523420619127137E-007
4.569999873638153E-001	-2.620931525143533E-007
4.560000002384186E-001	-2.722404701671621E-007
4.550000131130219E-001	-2.827991352205572E-007
4.539999961853027E-001	-2.937850922535290E-007
4.530000090599060E-001	-3.052147974358377E-007
4.519999921321869E-001	-3.171054459016887E-007
4.510000050067902E-001	-3.294749717497325E-007
4.499999880790710E-001	-3.423420480430650E-007
4.490000009536743E-001	-3.557260583875177E-007
4.480000138282776E-001	-3.696472390402050E-007
4.469999969005585E-001	-3.841266220661055E-007
4.460000097751617E-001	-3.991860637597711E-007
4.449999928474426E-001	-4.148483583321649E-007
4.440000057220459E-001	-4.311371810672426E-007
4.429999887943268E-001	-4.480772020087898E-007
4.420000016689301E-001	-4.656940575387125E-007
4.409999847412109E-001	-4.840144356421661E-007
4.399999976158142E-001	-5.030659622207168E-007
4.390000104904175E-001	-5.228776558396930E-007
4.379999935626984E-001	-5.434793592939968E-007
4.370000064373016E-001	-5.649023933074204E-007
4.359999895095825E-001	-5.871791017852956E-007
4.350000023841858E-001	-6.103433065618447E-007
4.339999854564667E-001	-6.344300800265046E-007
4.329999983310699E-001	-6.594759156541841E-007
4.320000112056732E-001	-6.855187280052633E-007
4.309999942779541E-001	-7.125980232558504E-007
4.300000071525574E-001	-7.407547286675253E-007
4.289999902248383E-001	-7.700315904912713E-007
4.280000030994415E-001	-8.004729465937999E-007
4.269999861717224E-001	-8.321248969878070E-007
4.259999990463257E-001	-8.650354175188113E-007
4.250000119209290E-001	-8.992543598651537E-007
4.239999949932098E-001	-9.348335083814163E-007
4.230000078678131E-001	-9.718269211589359E-007
4.219999909400940E-001	-1.010290361591615E-006
4.210000038146973E-001	-1.050282435244299E-006
4.199999868869781E-001	-1.091863396140980E-006
4.189999997615814E-001	-1.135096567850269E-006
4.180000126361847E-001	-1.180047092930181E-006
4.169999957084656E-001	-1.226783410857024E-006
4.160000085830688E-001	-1.275376007470186E-006
4.149999916553497E-001	-1.325898665527347E-006
4.140000045299530E-001	-1.378427896270296E-006
4.129999876022339E-001	-1.433043166798598E-006
4.120000004768372E-001	-1.489827241130115E-006
4.110000133514404E-001	-1.548866066514165E-006
4.099999964237213E-001	-1.610249228178873E-006
4.090000092983246E-001	-1.674069494583819E-006
4.079999923706055E-001	-1.740423613227904E-006
4.070000052452087E-001	-1.809412083275674E-006
4.059999883174896E-001	-1.881139269244159E-006
4.050000011920929E-001	-1.955713742063381E-006
4.039999842643738E-001	-2.033248620136874E-006
4.029999971389771E-001	-2.113861228281166E-006
4.020000100135803E-001	-2.197673438786296E-006
4.009999930858612E-001	-2.284812353536836E-006
4.000000059604645E-001	-2.375409621890867E-006
3.989999890327454E-001	-2.469602577548358E-006
3.980000019073486E-001	-2.567534011177486E-006
3.969999849796295E-001	-2.669351715667290E-006
3.959999978542328E-001	-2.775210077743395E-006
3.950000107288361E-001	-2.885269168473314E-006
3.939999938011169E-001	-2.999695652761147E-006
3.930000066757202E-001	-3.118662561973906E-006
3.919999897480011E-001	-3.242349976062542E-006
3.910000026226044E-001	-3.370945250935620E-006
3.899999856948853E-001	-3.504642563711968E-006
3.889999985694885E-001	-3.643644504336407E-006
3.880000114440918E-001	-3.788161393458722E-006
3.869999945163727E-001	-3.938411737181013E-006
3.860000073909760E-001	-4.094622454431374E-006
3.849999904632568E-001	-4.257030013832264E-006
3.840000033378601E-001	-4.425880433700513E-006
3.829999864101410E-001	-4.601428827299969E-006
3.819999992847443E-001	-4.783940767083550E-006
3.810000121593475E-001	-4.973691375198541E-006
3.799999952316284E-001	-5.170968961465405E-006
3.790000081062317E-001	-5.376070475904271E-006
3.779999911785126E-001	-5.589306510955794E-006
3.770000040531158E-001	-5.810999027744401E-006
3.759999871253967E-001	-6.041483629815048E-006
3.750000000000000E-001	-6.281108198891161E-006
3.740000128746033E-001	-6.530235168611398E-006
3.729999959468842E-001	-6.789240160287591E-006
3.720000088214874E-001	-7.058515166136203E-006
3.709999918937683E-001	-7.338466275541577E-006
3.700000047683716E-001	-7.629517313034739E-006
3.689999878406525E-001	-7.932106200314593E-006
3.680000007152557E-001	-8.246690413216129E-006
3.669999837875366E-001	-8.573745617468376E-006
3.659999966621399E-001	-8.913764759199694E-006
3.650000095367432E-001	-9.267260793421883E-006
3.639999926090240E-001	-9.634767593524884E-006
3.630000054836273E-001	-1.001683904178208E-005
3.619999885559082E-001	-1.041405175783439E-005
3.610000014305115E-001	-1.082700509869028E-005
3.599999845027924E-001	-1.125632024923107E-005
3.589999973773956E-001	-1.170264567917911E-005
3.580000102519989E-001	-1.216665441461373E-005
3.569999933242798E-001	-1.264904403797118E-005
3.560000061988831E-001	-1.315054214501288E-005
3.549999892711639E-001	-1.367190452583600E-005
3.540000021457672E-001	-1.421391516487347E-005
3.529999852180481E-001	-1.477739078836748E-005
3.519999980926514E-001	-1.536317904538009E-005
3.510000109672546E-001	-1.597216214577202E-005
3.499999940395355E-001	-1.660525413171854E-005
3.490000069141388E-001	-1.726340815366711E-005
3.479999899864197E-001	-1.794761374185327E-005
3.470000028610229E-001	-1.865889862529002E-005
3.459999859333038E-001	-1.939833236974664E-005
3.449999988079071E-001	-2.016702273976989E-005
3.440000116825104E-001	-2.096612661262043E-005
3.429999947547913E-001	-2.179684270231519E-005
3.420000076293945E-001	-2.266041701659560E-005
3.409999907016754E-001	-2.355814285692759E-005
3.400000035762787E-001	-2.449136627546977E-005
3.389999866485596E-001	-2.546148607507348E-005
3.379999995231628E-001	-2.646995562827215E-005
3.370000123977661E-001	-2.751828287728131E-005
3.359999954700470E-001	-2.860803579096682E-005
3.350000083446503E-001	-2.974084782181308E-005
3.339999914169312E-001	-3.091840699198656E-005
3.330000042915344E-001	-3.214247408322990E-005
3.319999873638153E-001	-3.341487899888307E-005
3.310000002384186E-001	-3.473751348792575E-005
3.299999833106995E-001	-3.611235661082901E-005
3.289999961853027E-001	-3.754145654966123E-005
3.280000090599060E-001	-3.902693424606696E-005
3.269999921321869E-001	-4.057100886711851E-005
3.260000050067902E-001	-4.217596870148554E-005
3.249999880790710E-001	-4.384420390124433E-005
3.240000009536743E-001	-4.557818829198368E-005
3.229999840259552E-001	-4.738049756269902E-005
3.219999969005585E-001	-4.925379835185595E-005
3.210000097751617E-001	-5.120087007526308E-005
3.199999928474426E-001	-5.322459037415683E-005
3.190000057220459E-001	-5.532794966711663E-005
3.179999887943268E-001	-5.751405478804372E-005
3.170000016689301E-001	-5.978613262414001E-005
3.159999847412109E-001	-6.214752647792920E-005
3.149999976158142E-001	-6.460172153310850E-005
3.140000104904175E-001	-6.715230847476050E-005
3.129999935626984E-001	-6.980305624892935E-005
3.120000064373016E-001	-7.255783566506580E-005
3.109999895095825E-001	-7.542068487964571E-005
3.100000023841858E-001	-7.839578756829724E-005
3.089999854564667E-001	-8.148750202963129E-005
3.079999983310699E-001	-8.470032480545342E-005
3.070000112056732E-001	-8.803894161246717E-005
3.059999942779541E-001	-9.150819823844358E-005
3.050000071525574E-001	-9.511314419796690E-005
3.039999902248383E-001	-9.885898907668889E-005
3.030000030994415E-001	-1.027511607389897E-004
3.019999861717224E-001	-1.067952762241475E-004
3.009999990463257E-001	-1.109971562982537E-004
3.000000119209290E-001	-1.153628472820856E-004
2.989999949932098E-001	-1.198986137751490E-004
2.980000078678131E-001	-1.246109604835510E-004
2.969999909400940E-001	-1.295065885642543E-004
2.960000038146973E-001	-1.345925120403990E-004
2.949999868869781E-001	-1.398759486619383E-004
2.939999997615814E-001	-1.453643781132996E-004
2.929999828338623E-001	-1.510655711172149E-004
2.919999957084656E-001	-1.569875603308901E-004
2.910000085830688E-001	-1.631386840017512E-004
2.899999916553497E-001	-1.695275714155287E-004
2.890000045299530E-001	-1.761631283443421E-004
2.879999876022339E-001	-1.830546098062769E-004
2.870000004768372E-001	-1.902115764096379E-004
2.859999835491180E-001	-1.976439380086958E-004
2.849999964237213E-001	-2.053619391517714E-004
2.840000092983246E-001	-2.133761590812355E-004
2.829999923706055E-001	-2.216975699411705E-004
2.820000052452087E-001	-2.303374785697088E-004
2.809999883174896E-001	-2.393076283624396E-004
2.800000011920929E-001	-2.486201119609177E-004
2.789999842643738E-001	-2.582874149084091E-004
2.779999971389771E-001	-2.683224738575518E-004
2.770000100135803E-001	-2.787386474665254E-004
2.759999930858612E-001	-2.895496727433056E-004
2.750000059604645E-001	-3.007698105648160E-004
2.739999890327454E-001	-3.124136710539460E-004
2.730000019073486E-001	-3.244964173063636E-004
2.719999849796295E-001	-3.370336780790240E-004
2.709999978542328E-001	-3.500414604786783E-004
2.700000107288361E-001	-3.635363827925175E-004
2.689999938011169E-001	-3.775354998651892E-004
2.680000066757202E-001	-3.920563904102892E-004
2.669999897480011E-001	-4.071170988027006E-004
2.660000026226044E-001	-4.227362223900855E-004
2.649999856948853E-001	-4.389329114928842E-004
2.639999985694885E-001	-4.557268111966550E-004
2.629999816417694E-001	-4.731381195597351E-004
2.619999945163727E-001	-4.911875003017485E-004
2.610000073909760E-001	-5.098962574265897E-004
2.599999904632568E-001	-5.292861605994403E-004
2.590000033378601E-001	-5.493796197697520E-004
2.579999864101410E-001	-5.701994523406029E-004
2.569999992847443E-001	-5.917690577916801E-004
2.559999823570251E-001	-6.141124758869410E-004
2.549999952316284E-001	-6.372540956363082E-004
2.540000081062317E-001	-6.612189463339746E-004
2.529999911785126E-001	-6.860325229354203E-004
2.520000040531158E-001	-7.117207860574126E-004
2.509999871253967E-001	-7.383102201856673E-004
2.500000000000000E-001	-7.658277754671872E-004
2.489999979734421E-001	-7.943008677102625E-004
2.479999959468842E-001	-8.237571455538273E-004
2.469999939203262E-001	-8.542248979210854E-004
2.459999918937683E-001	-8.857325883582234E-004
2.449999898672104E-001	-9.183091460727155E-004
2.440000027418137E-001	-9.519836166873574E-004
2.430000007152557E-001	-9.867855114862323E-004
2.419999986886978E-001	-1.022744225338101E-003
2.409999966621399E-001	-1.059889793395996E-003
2.399999946355820E-001	-1.098251668736339E-003
2.389999926090240E-001	-1.137860002927482E-003
2.379999905824661E-001	-1.178744481876493E-003
2.370000034570694E-001	-1.220934791490436E-003
2.360000014305115E-001	-1.264460501261055E-003
2.349999994039536E-001	-1.309350831434131E-003
2.339999973773956E-001	-1.355634769424796E-003
2.329999953508377E-001	-1.403340720571578E-003
2.319999933242798E-001	-1.452496624551713E-003
2.309999912977219E-001	-1.503129722550511E-003
2.299999892711639E-001	-1.555266557261348E-003
2.290000021457672E-001	-1.608932507224381E-003
2.280000001192093E-001	-1.664152368903160E-003
2.269999980926514E-001	-1.720949541777372E-003
2.259999960660934E-001	-1.779346144758165E-003
2.249999940395355E-001	-1.839362783357501E-003
2.239999920129776E-001	-1.901018666103482E-003
2.229999899864197E-001	-1.964331138879061E-003
2.220000028610229E-001	-2.029315801337361E-003
2.210000008344650E-001	-2.095985924825072E-003
2.199999988079071E-001	-2.164352685213089E-003
2.189999967813492E-001	-2.234424930065870E-003
2.179999947547913E-001	-2.306208712980151E-003
2.169999927282333E-001	-2.379707526415586E-003
2.159999907016754E-001	-2.454921836033463E-003
2.149999886751175E-001	-2.531848615035415E-003
2.140000015497208E-001	-2.610481809824705E-003
2.129999995231628E-001	-2.690812340006232E-003
2.119999974966049E-001	-2.772826235741377E-003
2.109999954700470E-001	-2.856506733223796E-003
2.099999934434891E-001	-2.941832644864917E-003
2.089999914169312E-001	-3.028778592124581E-003
2.079999893903732E-001	-3.117314539849758E-003
2.070000022649765E-001	-3.207406261935830E-003
2.060000002384186E-001	-3.299014875665307E-003
2.049999982118607E-001	-3.392096608877182E-003
2.039999961853027E-001	-3.486602799966931E-003
2.029999941587448E-001	-3.582479897886515E-003
2.019999921321869E-001	-3.679669229313731E-003
2.009999901056290E-001	-3.778106765821576E-003
1.999999880790710E-001	-3.877723589539528E-003
1.990000009536743E-001	-3.978446125984192E-003
1.979999989271164E-001	-4.080194048583508E-003
1.969999969005585E-001	-4.182884003967047E-003
1.959999948740005E-001	-4.286426119506359E-003
1.949999928474426E-001	-4.390725865960121E-003
1.939999908208847E-001	-4.495684523135424E-003
1.929999887943268E-001	-4.601197782903910E-003
1.920000016689301E-001	-4.707157611846924E-003
1.909999996423721E-001	-4.813451319932938E-003
1.899999976158142E-001	-4.919962957501411E-003
1.889999955892563E-001	-5.026570986956358E-003
1.879999935626984E-001	-5.133152939379215E-003
1.869999915361404E-001	-5.239581223577261E-003
1.859999895095825E-001	-5.345726851373911E-003
1.850000023841858E-001	-5.451457574963570E-003
1.840000003576279E-001	-5.556640680879354E-003
1.829999983310699E-001	-5.661140196025372E-003
1.819999963045120E-001	-5.764820612967014E-003
1.809999942779541E-001	-5.867545492947102E-003
1.799999922513962E-001	-5.969177931547165E-003
1.789999902248383E-001	-6.069582421332598E-003
1.779999881982803E-001	-6.168624386191368E-003
1.770000010728836E-001	-6.266169715672731E-003
1.759999990463257E-001	-6.362088024616241E-003
1.749999970197678E-001	-6.456249859184027E-003
1.739999949932098E-001	-6.548530887812376E-003
1.729999929666519E-001	-6.638808175921440E-003
1.719999909400940E-001	-6.726964842528105E-003
1.709999889135361E-001	-6.812887266278267E-003
1.700000017881393E-001	-6.896467879414558E-003
1.689999997615814E-001	-6.977603305131197E-003
1.679999977350235E-001	-7.056197151541710E-003
1.669999957084656E-001	-7.132158614695072E-003
1.659999936819077E-001	-7.205403409898281E-003
1.649999916553497E-001	-7.275854703038931E-003
1.639999896287918E-001	-7.343441247940063E-003
1.629999876022339E-001	-7.408101111650467E-003
1.620000004768372E-001	-7.469777483493090E-003
1.609999984502792E-001	-7.528422400355339E-003
1.599999964237213E-001	-7.583995815366507E-003
1.589999943971634E-001	-7.636464200913906E-003
1.579999923706055E-001	-7.685802876949310E-003
1.569999903440475E-001	-7.731993217021227E-003
1.559999883174896E-001	-7.775025442242622E-003
1.550000011920929E-001	-7.814897224307060E-003
1.539999991655350E-001	-7.851611822843552E-003
1.529999971389771E-001	-7.885181345045567E-003
1.519999951124191E-001	-7.915624417364597E-003
1.509999930858612E-001	-7.942965254187584E-003
1.499999910593033E-001	-7.967233657836914E-003
1.489999890327454E-001	-7.988469675183296E-003
1.480000019073486E-001	-8.006712421774864E-003
1.469999998807907E-001	-8.022013120353222E-003
1.459999978542328E-001	-8.034422993659973E-003
1.449999958276749E-001	-8.043999783694744E-003
1.439999938011169E-001	-8.050805889070034E-003
1.429999917745590E-001	-8.054907433688641E-003
1.419999897480011E-001	-8.056372404098511E-003
1.409999877214432E-001	-8.055274374783039E-003
1.400000005960464E-001	-8.051687851548195E-003
1.389999985694885E-001	-8.045691065490246E-003
1.379999965429306E-001	-8.037363179028034E-003
1.369999945163727E-001	-8.026785217225552E-003
1.359999924898148E-001	-8.014040999114513E-003
1.349999904632568E-001	-7.999213412404060E-003
1.339999884366989E-001	-7.982388138771057E-003
1.330000013113022E-001	-7.963648065924644E-003
1.319999992847443E-001	-7.943079806864262E-003
1.309999972581863E-001	-7.920767180621624E-003
1.299999952316284E-001	-7.896794937551022E-003
1.289999932050705E-001	-7.871247828006744E-003
1.279999911785126E-001	-7.844208739697933E-003
1.269999891519547E-001	-7.815758697688580E-003
1.259999871253967E-001	-7.785979658365250E-003
1.249999925494194E-001	-7.754950318485498E-003
1.239999979734421E-001	-7.722749374806881E-003
1.229999959468842E-001	-7.689452264457941E-003
1.219999939203262E-001	-7.655134424567223E-003
1.209999918937683E-001	-7.619867566972971E-003
1.199999973177910E-001	-7.583722937852144E-003
1.189999952912331E-001	-7.546769455075264E-003
1.179999932646751E-001	-7.509072776883841E-003
1.169999912381172E-001	-7.470698095858097E-003
1.159999966621399E-001	-7.431706879287958E-003
1.149999946355820E-001	-7.392160128802061E-003
1.139999926090240E-001	-7.352114655077457E-003
1.129999905824661E-001	-7.311626337468624E-003
1.119999960064888E-001	-7.270748727023602E-003
1.109999939799309E-001	-7.229532115161419E-003
1.099999919533730E-001	-7.188026327639818E-003
1.089999973773956E-001	-7.146277464926243E-003
1.079999953508377E-001	-7.104329764842987E-003
1.069999933242798E-001	-7.062226533889771E-003
1.059999912977219E-001	-7.020006887614727E-003
1.049999967217445E-001	-6.977710407227278E-003
1.039999946951866E-001	-6.935372017323971E-003
1.029999926686287E-001	-6.893027108162642E-003
1.019999906420708E-001	-6.850707344710827E-003
1.009999960660934E-001	-6.808443460613489E-003
9.999999403953552E-002	-6.766264326870441E-003
9.899999201297760E-002	-6.724197417497635E-003
9.799999743700027E-002	-6.682267412543297E-003
9.699999541044235E-002	-6.640498526394367E-003
9.599999338388443E-002	-6.598912645131350E-003
9.499999135732651E-002	-6.557530723512173E-003
9.399999678134918E-002	-6.516371853649616E-003
9.299999475479126E-002	-6.475454196333885E-003
9.199999272823334E-002	-6.434794049710035E-003
9.099999070167542E-002	-6.394406780600548E-003
8.999999612569809E-002	-6.354306358844042E-003
8.899999409914017E-002	-6.314505822956562E-003
8.799999207258224E-002	-6.275016814470291E-003
8.699999749660492E-002	-6.235850509256125E-003
8.599999547004700E-002	-6.197016220539808E-003
8.499999344348907E-002	-6.158522795885801E-003
8.399999141693115E-002	-6.120378617197275E-003
8.299999684095383E-002	-6.082590203732252E-003
8.199999481439590E-002	-6.045164074748755E-003
8.099999278783798E-002	-6.008105352520943E-003
7.999999076128006E-002	-5.971419159322977E-003
7.899999618530273E-002	-5.935109220445156E-003
7.799999415874481E-002	-5.899179261177778E-003
7.699999213218689E-002	-5.863632075488567E-003
7.599999010562897E-002	-5.828469526022673E-003
7.499999552965164E-002	-5.793693941086531E-003
7.399999350309372E-002	-5.759306252002716E-003
7.299999147653580E-002	-5.725306458771229E-003
7.199999690055847E-002	-5.691695958375931E-003
7.099999487400055E-002	-5.658474285155535E-003
6.999999284744263E-002	-5.625640507787466E-003
6.899999082088470E-002	-5.593194160610437E-003
6.799999624490738E-002	-5.561133380979300E-003
6.699999421834946E-002	-5.529457703232765E-003
6.599999219179153E-002	-5.498164799064398E-003
6.499999016523361E-002	-5.467252805829048E-003
6.399999558925629E-002	-5.436718929558992E-003
6.299999356269836E-002	-5.406560841947794E-003
6.199999526143074E-002	-5.376776214689016E-003
6.099999323487282E-002	-5.347361788153648E-003
5.999999493360519E-002	-5.318314302712679E-003
5.899999290704727E-002	-5.289630964398384E-003
5.799999460577965E-002	-5.261308047920465E-003
5.699999257922173E-002	-5.233342293649912E-003
5.599999427795410E-002	-5.205729976296425E-003
5.499999225139618E-002	-5.178466904908419E-003
5.399999395012856E-002	-5.151549819856882E-003
5.299999192357063E-002	-5.124974530190229E-003
5.199999362230301E-002	-5.098737310618162E-003
5.099999159574509E-002	-5.072833970189095E-003
4.999999329447746E-002	-5.047260317951441E-003
4.899999499320984E-002	-5.022012628614903E-003
4.799999296665192E-002	-4.997086245566607E-003
4.699999466538429E-002	-4.972476977854967E-003
4.599999263882637E-002	-4.948181100189686E-003
4.499999433755875E-002	-4.924193955957890E-003
4.399999231100082E-002	-4.900511354207993E-003
4.299999400973320E-002	-4.877129103988409E-003
4.199999198317528E-002	-4.854043480008841E-003
4.099999368190765E-002	-4.831249359995127E-003
3.999999165534973E-002	-4.808743018656969E-003
3.899999335408211E-002	-4.786520265042782E-003
3.799999132752419E-002	-4.764576908200979E-003
3.699999302625656E-002	-4.742908757179976E-003
3.599999472498894E-002	-4.721511155366898E-003
3.499999269843102E-002	-4.700380843132734E-003
3.399999439716339E-002	-4.679513629525900E-003
3.299999237060547E-002	-4.658904857933521E-003
3.199999406933784E-002	-4.638551268726587E-003
3.099999390542507E-002	-4.618448205292225E-003
2.999999374151230E-002	-4.598592408001423E-003
2.899999357759953E-002	-4.578979220241308E-003
2.799999341368675E-002	-4.559605382382870E-003
2.699999324977398E-002	-4.540467169135809E-003
2.599999308586121E-002	-4.521560389548540E-003
2.499999292194843E-002	-4.502881783992052E-003
2.399999275803566E-002	-4.484427161514759E-003
2.299999259412289E-002	-4.466193262487650E-003
2.199999243021011E-002	-4.448176827281713E-003
2.099999226629734E-002	-4.430373664945364E-003
1.999999210238457E-002	-4.412780515849590E-003
1.899999193847179E-002	-4.395394586026669E-003
1.799999363720417E-002	-4.378211684525013E-003
1.699999347329140E-002	-4.361228551715612E-003
1.599999330937862E-002	-4.344442859292030E-003
1.499999314546585E-002	-4.327850416302681E-003
1.399999298155308E-002	-4.311447963118553E-003
1.299999281764030E-002	-4.295233637094498E-003
1.199999265372753E-002	-4.279202781617641E-003
1.099999248981476E-002	-4.263353534042835E-003
9.999992325901985E-003	-4.247682634741068E-003
8.999993093311787E-003	-4.232186824083328E-003
7.999992929399014E-003	-4.216863308101892E-003
6.999992765486240E-003	-4.201709758490324E-003
5.999992601573467E-003	-4.186723381280899E-003
4.999992437660694E-003	-4.171900451183319E-003
3.999992739409208E-003	-4.157239571213722E-003
2.999992575496435E-003	-4.142737481743097E-003
1.999992644414306E-003	-4.128391388803720E-003
9.999925969168544E-004	-4.114199429750443E-003
-7.450580596923828E-009	-4.100158344954252E-003
-1.000007498078048E-003	-4.086266271770000E-003
-2.000007545575500E-003	-4.072520416229963E-003
-3.000007476657629E-003	-4.058918915688992E-003
-4.000007640570402E-003	-4.045458976179361E-003
-5.000007338821888E-003	-4.032138269394636E-003
-6.000007502734661E-003	-4.018954932689667E-003
-7.000007666647434E-003	-4.005906637758017E-003
-8.000007830560207E-003	-3.992991056293249E-003
-9.000007994472981E-003	-3.980206325650215E-003
-1.000000722706318E-002	-3.967550583183765E-003
-1.100000739097595E-002	-3.955021034926176E-003
-1.200000755488873E-002	-3.942616283893585E-003
-1.300000771880150E-002	-3.930334467440844E-003
-1.400000788271427E-002	-3.918173257261515E-003
-1.500000804662704E-002	-3.906130790710449E-003
-1.600000821053982E-002	-3.894205205142498E-003
-1.700000837445259E-002	-3.882395103573799E-003
-1.800000853836536E-002	-3.870698390528560E-003
-1.900000683963299E-002	-3.859113203361630E-003
-2.000000700354576E-002	-3.847637912258506E-003
-2.100000716745853E-002	-3.836270887404680E-003
-2.200000733137131E-002	-3.825010731816292E-003
-2.300000749528408E-002	-3.813855350017548E-003
-2.400000765919685E-002	-3.802803345024586E-003
-2.500000782310963E-002	-3.791853087022901E-003
-2.600000798702240E-002	-3.781003179028630E-003
-2.700000815093517E-002	-3.770251991227269E-003
-2.800000831484795E-002	-3.759598359465599E-003
-2.900000847876072E-002	-3.749040421098471E-003
-3.000000864267349E-002	-3.738576779142022E-003
-3.100000880658627E-002	-3.728206269443035E-003
-3.200000897049904E-002	-3.717927495017648E-003
-3.300000727176666E-002	-3.707738826051354E-003
-3.400000929832459E-002	-3.697639331221581E-003
-3.500000759959221E-002	-3.687627613544464E-003
-3.600000962615013E-002	-3.677702276036143E-003
-3.700000792741776E-002	-3.667861921712756E-003
-3.800000622868538E-002	-3.658105852082372E-003
-3.900000825524330E-002	-3.648432437330484E-003
-4.000000655651093E-002	-3.638840513303876E-003
-4.100000858306885E-002	-3.629328915849328E-003
-4.200000688433647E-002	-3.619896946474910E-003
-4.300000891089439E-002	-3.610542975366116E-003
-4.400000721216202E-002	-3.601266071200371E-003
-4.500000923871994E-002	-3.592065069824457E-003
-4.600000753998756E-002	-3.582939272746444E-003
-4.700000956654549E-002	-3.573887282982469E-003
-4.800000786781311E-002	-3.564908169209957E-003
-4.900000989437103E-002	-3.556001000106335E-003
-5.000000819563866E-002	-3.547164611518383E-003
-5.100000649690628E-002	-3.538398304954171E-003
-5.200000852346420E-002	-3.529701149091125E-003
-5.300000682473183E-002	-3.521071979776025E-003
-5.400000885128975E-002	-3.512509865686297E-003
-5.500000715255737E-002	-3.504014341160655E-003
-5.600000917911530E-002	-3.495584009215236E-003
-5.700000748038292E-002	-3.487218171358109E-003
-5.800000950694084E-002	-3.478916129097342E-003
-5.900000780820847E-002	-3.470676951110363E-003
-6.000000983476639E-002	-3.462499938905239E-003
-6.100000813603401E-002	-3.454384161159396E-003
-6.200001016259193E-002	-3.446328686550260E-003
-6.300000846385956E-002	-3.438333049416542E-003
-6.400001049041748E-002	-3.430396085605025E-003
-6.500000506639481E-002	-3.422517562285066E-003
-6.600000709295273E-002	-3.414696315303445E-003
-6.700000911951065E-002	-3.406931878998876E-003
-6.800001114606857E-002	-3.399223322048783E-003
-6.900000572204590E-002	-3.391570178791881E-003
-7.000000774860382E-002	-3.383971750736237E-003
-7.100000977516174E-002	-3.376427106559277E-003
-7.200001180171967E-002	-3.368935780599713E-003
-7.300000637769699E-002	-3.361497074365616E-003
-7.400000840425491E-002	-3.354110522195697E-003
-7.500001043081284E-002	-3.346775192767382E-003
-7.600000500679016E-002	-3.339490620419383E-003
-7.700000703334808E-002	-3.332256339490414E-003
-7.800000905990601E-002	-3.325071418657899E-003
-7.900001108646393E-002	-3.317935392260551E-003
-8.000000566244125E-002	-3.310847794637084E-003
-8.100000768899918E-002	-3.303808160126209E-003
-8.200000971555710E-002	-3.296815557405353E-003
-8.300001174211502E-002	-3.289869753643870E-003
-8.400000631809235E-002	-3.282970050349832E-003
-8.500000834465027E-002	-3.276115981861949E-003
-8.600001037120819E-002	-3.269307082518935E-003
-8.700001239776611E-002	-3.262542653828859E-003
-8.800000697374344E-002	-3.255822462961078E-003
-8.900000900030136E-002	-3.249145811423659E-003
-9.000001102685928E-002	-3.242512000724673E-003
-9.100000560283661E-002	-3.235921030864120E-003
-9.200000762939453E-002	-3.229372203350067E-003
-9.300000965595245E-002	-3.222864819690585E-003
-9.400001168251038E-002	-3.216398647055030E-003
-9.500000625848770E-002	-3.209973452612758E-003
-9.600000828504562E-002	-3.203588305041194E-003
-9.700001031160355E-002	-3.197243204340339E-003
-9.800001233816147E-002	-3.190937452018261E-003
-9.900000691413879E-002	-3.184670582413673E-003
-1.000000089406967E-001	-3.178442362695932E-003
-1.010000109672546E-001	-3.172252327203751E-003
-1.020000055432320E-001	-3.166100243106484E-003
-1.030000075697899E-001	-3.159985179081559E-003
-1.040000095963478E-001	-3.153907367959619E-003
-1.050000116229057E-001	-3.147865878418088E-003
-1.060000061988831E-001	-3.141860710456967E-003
-1.070000082254410E-001	-3.135891398414969E-003
-1.080000102519989E-001	-3.129957476630807E-003
-1.090000122785568E-001	-3.124058479443192E-003
-1.100000068545341E-001	-3.118194406852126E-003
-1.110000088810921E-001	-3.112364560365677E-003
-1.120000109076500E-001	-3.106568939983845E-003
-1.130000054836273E-001	-3.100806847214699E-003
-1.140000075101852E-001	-3.095078049227595E-003
-1.150000095367432E-001	-3.089382080361247E-003
-1.160000115633011E-001	-3.083719173446298E-003
-1.170000061392784E-001	-3.078088397160172E-003
-1.180000081658363E-001	-3.072489518672228E-003
-1.190000101923943E-001	-3.066922537982464E-003
-1.200000122189522E-001	-3.061386756598949E-003
-1.210000067949295E-001	-3.055882174521685E-003
-1.220000088214874E-001	-3.050408326089382E-003
-1.230000108480453E-001	-3.044964978471398E-003
-1.240000128746033E-001	-3.039551898837090E-003
-1.250000149011612E-001	-3.034168621525168E-003
-1.260000020265579E-001	-3.028815146535635E-003
-1.270000040531158E-001	-3.023490775376558E-003
-1.280000060796738E-001	-3.018195508047938E-003
-1.290000081062317E-001	-3.012929111719131E-003
-1.300000101327896E-001	-3.007691120728850E-003
-1.310000121593475E-001	-3.002481302246451E-003
-1.320000141859055E-001	-2.997299656271935E-003
-1.330000162124634E-001	-2.992145484313369E-003
-1.340000033378601E-001	-2.987019019201398E-003
-1.350000053644180E-001	-2.981919562444091E-003
-1.360000073909760E-001	-2.976847114041448E-003
-1.370000094175339E-001	-2.971801441162825E-003
-1.380000114440918E-001	-2.966782078146935E-003
-1.390000134706497E-001	-2.961789024993777E-003
-1.400000154972076E-001	-2.956822048872709E-003
-1.410000026226044E-001	-2.951880684122443E-003
-1.420000046491623E-001	-2.946964930742979E-003
-1.430000066757202E-001	-2.942074555903673E-003
-1.440000087022781E-001	-2.937209093943238E-003
-1.450000107288361E-001	-2.932368544861674E-003
-1.460000127553940E-001	-2.927552675828338E-003
-1.470000147819519E-001	-2.922761254012585E-003
-1.480000168085098E-001	-2.917993813753128E-003
-1.490000039339066E-001	-2.913250587880611E-003
-1.500000059604645E-001	-2.908531110733747E-003
-1.510000079870224E-001	-2.903835149481893E-003
-1.520000100135803E-001	-2.899162471294403E-003
-1.530000120401382E-001	-2.894513076171279E-003
-1.540000140666962E-001	-2.889886731281877E-003
-1.550000160932541E-001	-2.885282970964909E-003
-1.560000032186508E-001	-2.880702028051019E-003
-1.570000052452087E-001	-2.876143436878920E-003
-1.580000072717667E-001	-2.871606964617968E-003
-1.590000092983246E-001	-2.867092611268163E-003
-1.600000113248825E-001	-2.862599911168218E-003
-1.610000133514404E-001	-2.858129097148776E-003
-1.620000153779984E-001	-2.853679470717907E-003
-1.630000025033951E-001	-2.849251497536898E-003
-1.640000045299530E-001	-2.844844479113817E-003
-1.650000065565109E-001	-2.840458415448666E-003
-1.660000085830688E-001	-2.836093073710799E-003
-1.670000106096268E-001	-2.831748221069574E-003
-1.680000126361847E-001	-2.827424090355635E-003
-1.690000146627426E-001	-2.823120215907693E-003
-1.700000166893005E-001	-2.818836364895105E-003
-1.710000038146973E-001	-2.814572537317872E-003
-1.720000058412552E-001	-2.810328267514706E-003
-1.730000078678131E-001	-2.806103788316250E-003
-1.740000098943710E-001	-2.801898866891861E-003
-1.750000119209290E-001	-2.797713270410895E-003
-1.760000139474869E-001	-2.793546766042709E-003
-1.770000159740448E-001	-2.789399353787303E-003
-1.780000030994415E-001	-2.785270800814033E-003
-1.790000051259995E-001	-2.781161107122898E-003
-1.800000071525574E-001	-2.777069807052612E-003
-1.810000091791153E-001	-2.772996900603175E-003
-1.820000112056732E-001	-2.768942620605230E-003
-1.830000132322311E-001	-2.764906268566847E-003
-1.840000152587891E-001	-2.760887844488025E-003
-1.850000172853470E-001	-2.756887348368764E-003
-1.860000044107437E-001	-2.752904780209064E-003
-1.870000064373016E-001	-2.748939674347639E-003
-1.880000084638596E-001	-2.744992030784488E-003
-1.890000104904175E-001	-2.741061849519610E-003
-1.900000125169754E-001	-2.737148664891720E-003
-1.910000145435333E-001	-2.733252709731460E-003
-1.920000165700912E-001	-2.729373751208186E-003
-1.930000036954880E-001	-2.725511556491256E-003
-1.940000057220459E-001	-2.721666125580668E-003
-1.950000077486038E-001	-2.717837458476424E-003
-1.960000097751617E-001	-2.714024856686592E-003
-1.970000118017197E-001	-2.710229018703103E-003
-1.980000138282776E-001	-2.706449013203382E-003
-1.990000158548355E-001	-2.702685305848718E-003
-2.000000178813934E-001	-2.698937663808465E-003
-2.010000050067902E-001	-2.695205854251981E-003
-2.020000070333481E-001	-2.691489644348621E-003
-2.030000090599060E-001	-2.687789266929030E-003
-2.040000110864639E-001	-2.684104256331921E-003
-2.050000131130219E-001	-2.680434845387936E-003
-2.060000151395798E-001	-2.676780568435788E-003
-2.070000171661377E-001	-2.673141658306122E-003
-2.080000042915344E-001	-2.669517649337649E-003
-2.090000063180923E-001	-2.665908774361014E-003
-2.100000083446503E-001	-2.662314800545573E-003
-2.110000103712082E-001	-2.658735495060682E-003
-2.120000123977661E-001	-2.655171090736985E-003
-2.130000144243240E-001	-2.651621121913195E-003
-2.140000164508820E-001	-2.648085588589311E-003
-2.150000035762787E-001	-2.644564257934690E-003
-2.160000056028366E-001	-2.641057595610619E-003
-2.170000076293945E-001	-2.637564903125167E-003
-2.180000096559525E-001	-2.634086180478334E-003
-2.190000116825104E-001	-2.630621427670121E-003
-2.200000137090683E-001	-2.627170877531171E-003
-2.210000157356262E-001	-2.623733831569552E-003
-2.220000177621841E-001	-2.620310522615910E-003
-2.230000048875809E-001	-2.616900950670242E-003
-2.240000069141388E-001	-2.613504650071263E-003
-2.250000089406967E-001	-2.610122086480260E-003
-2.260000109672546E-001	-2.606752561405301E-003
-2.270000129938126E-001	-2.603396540507674E-003
-2.280000150203705E-001	-2.600053558126092E-003
-2.290000170469284E-001	-2.596723614260554E-003
-2.300000041723251E-001	-2.593406476080418E-003
-2.310000061988831E-001	-2.590102609246969E-003
-2.320000082254410E-001	-2.586811315268278E-003
-2.330000102519989E-001	-2.583532826974988E-003
-2.340000122785568E-001	-2.580266911536455E-003
-2.350000143051147E-001	-2.577013568952680E-003
-2.360000163316727E-001	-2.573772799223661E-003
-2.370000183582306E-001	-2.570544369518757E-003
-2.380000054836273E-001	-2.567328047007322E-003
-2.390000075101852E-001	-2.564124297350645E-003
-2.400000095367432E-001	-2.560932422056794E-003
-2.410000115633011E-001	-2.557752886787057E-003
-2.420000135898590E-001	-2.554585225880146E-003
-2.430000156164169E-001	-2.551429439336061E-003
-2.440000176429749E-001	-2.548285527154803E-003
-2.450000047683716E-001	-2.545153489336371E-003
-2.460000067949295E-001	-2.542033093050122E-003
-2.470000088214874E-001	-2.538924338296056E-003
-2.480000108480453E-001	-2.535826992243528E-003
-2.490000128746033E-001	-2.532741287723184E-003
-2.500000000000000E-001	-2.529666991904378E-003
-2.510000169277191E-001	-2.526603871956468E-003
-2.520000040531158E-001	-2.523552160710096E-003
-2.530000209808350E-001	-2.520511625334620E-003
-2.540000081062317E-001	-2.517482265830040E-003
-2.550000250339508E-001	-2.514463849365711E-003
-2.560000121593475E-001	-2.511456375941634E-003
-2.569999992847443E-001	-2.508460078388453E-003
-2.580000162124634E-001	-2.505474258214235E-003
-2.590000033378601E-001	-2.502499613910913E-003
-2.600000202655792E-001	-2.499535446986556E-003
-2.610000073909760E-001	-2.496581990271807E-003
-2.620000243186951E-001	-2.493639243766665E-003
-2.630000114440918E-001	-2.490706741809845E-003
-2.639999985694885E-001	-2.487784950062633E-003
-2.650000154972076E-001	-2.484873635694385E-003
-2.660000026226044E-001	-2.481972333043814E-003
-2.670000195503235E-001	-2.479081507772207E-003
-2.680000066757202E-001	-2.476200927048922E-003
-2.690000236034393E-001	-2.473330590873957E-003
-2.700000107288361E-001	-2.470470033586025E-003
-2.709999978542328E-001	-2.467619720846415E-003
-2.720000147819519E-001	-2.464779419824481E-003
-2.730000019073486E-001	-2.461948897689581E-003
-2.740000188350677E-001	-2.459128387272358E-003
-2.750000059604645E-001	-2.456317422911525E-003
-2.760000228881836E-001	-2.453516470268369E-003
-2.770000100135803E-001	-2.450725063681602E-003
-2.779999971389771E-001	-2.447943435981870E-003
-2.790000140666962E-001	-2.445171121507883E-003
-2.800000011920929E-001	-2.442408585920930E-003
-2.810000181198120E-001	-2.439655363559723E-003
-2.820000052452087E-001	-2.436911454424262E-003
-2.830000221729279E-001	-2.434177091345191E-003
-2.840000092983246E-001	-2.431452041491866E-003
-2.850000262260437E-001	-2.428736072033644E-003
-2.860000133514404E-001	-2.426029415801167E-003
-2.870000004768372E-001	-2.423331839963794E-003
-2.880000174045563E-001	-2.420643344521523E-003
-2.890000045299530E-001	-2.417963929474354E-003
-2.900000214576721E-001	-2.415293361991644E-003
-2.910000085830688E-001	-2.412631874904037E-003
-2.920000255107880E-001	-2.409979235380888E-003
-2.930000126361847E-001	-2.407335443422198E-003
-2.939999997615814E-001	-2.404700499027967E-003
-2.950000166893005E-001	-2.402074169367552E-003
-2.960000038146973E-001	-2.399456687271595E-003
-2.970000207424164E-001	-2.396847587078810E-003
-2.980000078678131E-001	-2.394247334450483E-003
-2.990000247955322E-001	-2.391655463725328E-003
-3.000000119209290E-001	-2.389072207733989E-003
-2.990000247955322E-001	-2.386497100815177E-003
-2.980000078678131E-001	-2.383930608630180E-003
-2.970000207424164E-001	-2.381372498348355E-003
-2.960000038146973E-001	-2.378822537139058E-003
-2.950000166893005E-001	-2.376280957832932E-003
-2.939999997615814E-001	-2.373747760429978E-003
-2.930000126361847E-001	-2.371222479268909E-003
-2.920000255107880E-001	-2.368705580011010E-003
-2.910000085830688E-001	-2.366196596994996E-003
-2.900000214576721E-001	-2.363695530220866E-003
-2.890000045299530E-001	-2.361202612519264E-003
-2.880000174045563E-001	-2.358717843890190E-003
-2.870000004768372E-001	-2.356240758672357E-003
-2.860000133514404E-001	-2.353771589696407E-003
-2.850000262260437E-001	-2.351310104131699E-003
-2.840000092983246E-001	-2.348856534808874E-003
-2.830000221729279E-001	-2.346410881727934E-003
-2.820000052452087E-001	-2.343972679227591E-003
-2.810000181198120E-001	-2.341542160138488E-003
-2.800000011920929E-001	-2.339119324460626E-003
-2.790000140666962E-001	-2.336704172194004E-003
-2.779999971389771E-001	-2.334296470507979E-003
-2.770000100135803E-001	-2.331896219402552E-003
-2.760000228881836E-001	-2.329503651708364E-003
-2.750000059604645E-001	-2.327118301764131E-003
-2.740000188350677E-001	-2.324740402400494E-003
-2.730000019073486E-001	-2.322369720786810E-003
-2.720000147819519E-001	-2.320006489753723E-003
-2.709999978542328E-001	-2.317650476470590E-003
-2.700000107288361E-001	-2.315301680937409E-003
-2.690000236034393E-001	-2.312960103154182E-003
-2.680000066757202E-001	-2.310625743120909E-003
-2.670000195503235E-001	-2.308298368006945E-003
-2.660000026226044E-001	-2.305978210642934E-003
-2.650000154972076E-001	-2.303665038198233E-003
-2.639999985694885E-001	-2.301358850672841E-003
-2.630000114440918E-001	-2.299059648066759E-003
-2.620000243186951E-001	-2.296767430379987E-003
-2.610000073909760E-001	-2.294482197612524E-003
-2.600000202655792E-001	-2.292203716933727E-003
-2.590000033378601E-001	-2.289932221174240E-003
-2.580000162124634E-001	-2.287667244672775E-003
-2.569999992847443E-001	-2.285409253090620E-003
-2.560000121593475E-001	-2.283158013597131E-003
-2.550000250339508E-001	-2.280913293361664E-003
-2.540000081062317E-001	-2.278675325214863E-003
-2.530000209808350E-001	-2.276444109156728E-003
-2.520000040531158E-001	-2.274219412356615E-003
-2.510000169277191E-001	-2.272001234814525E-003
-2.500000000000000E-001	-2.269789576530457E-003
-2.490000128746033E-001	-2.267584437504411E-003
-2.480000108480453E-001	-2.265385817736387E-003
-2.470000088214874E-001	-2.263193717226386E-003
-2.460000067949295E-001	-2.261007903143764E-003
-2.450000047683716E-001	-2.258828375488520E-003
-2.440000176429749E-001	-2.256655367091298E-003
-2.430000156164169E-001	-2.254488645121455E-003
-2.420000135898590E-001	-2.252328209578991E-003
-2.410000115633011E-001	-2.250173827633262E-003
-2.400000095367432E-001	-2.248025964945555E-003
-2.390000075101852E-001	-2.245883923023939E-003
-2.380000054836273E-001	-2.243748400360346E-003
-2.370000183582306E-001	-2.241618698462844E-003
-2.360000163316727E-001	-2.239495282992721E-003
-2.350000143051147E-001	-2.237377921119332E-003
-2.340000122785568E-001	-2.235266612842679E-003
-2.330000102519989E-001	-2.233161358162761E-003
-2.320000082254410E-001	-2.231061924248934E-003
-2.310000061988831E-001	-2.228968543931842E-003
-2.300000041723251E-001	-2.226881217211485E-003
-2.290000170469284E-001	-2.224799478426576E-003
-2.280000150203705E-001	-2.222723793238401E-003
-2.270000129938126E-001	-2.220653928816319E-003
-2.260000109672546E-001	-2.218589885160327E-003
-2.250000089406967E-001	-2.216531662270427E-003
-2.240000069141388E-001	-2.214479260146618E-003
-2.230000048875809E-001	-2.212432445958257E-003
-2.220000177621841E-001	-2.210391452535987E-003
-2.210000157356262E-001	-2.208356047049165E-003
-2.200000137090683E-001	-2.206326229497790E-003
-2.190000116825104E-001	-2.204302232712507E-003
-2.180000096559525E-001	-2.202283591032028E-003
-2.170000076293945E-001	-2.200270770117641E-003
-2.160000056028366E-001	-2.198263304308057E-003
-2.150000035762787E-001	-2.196261426433921E-003
-2.140000164508820E-001	-2.194265136495233E-003
-2.130000144243240E-001	-2.192274201661348E-003
-2.120000123977661E-001	-2.190288621932268E-003
-2.110000103712082E-001	-2.188308630138636E-003
-2.100000083446503E-001	-2.186333760619164E-003
-2.090000063180923E-001	-2.184364479035139E-003
-2.080000042915344E-001	-2.182400552555919E-003
-2.070000171661377E-001	-2.180441981181502E-003
-2.060000151395798E-001	-2.178488532081246E-003
-2.050000131130219E-001	-2.176540438085794E-003
-2.040000110864639E-001	-2.174597466364503E-003
-2.030000090599060E-001	-2.172659849748015E-003
-2.020000070333481E-001	-2.170727355405688E-003
-2.010000050067902E-001	-2.168800216168165E-003
-2.000000178813934E-001	-2.166877966374159E-003
-1.990000158548355E-001	-2.164961071684957E-003
-1.980000138282776E-001	-2.163049066439271E-003
-1.970000118017197E-001	-2.161142183467746E-003
-1.960000097751617E-001	-2.159240422770381E-003
-1.950000077486038E-001	-2.157343784347177E-003
-1.940000057220459E-001	-2.155452035367489E-003
-1.930000036954880E-001	-2.153565175831318E-003
-1.920000165700912E-001	-2.151683438569307E-003
-1.910000145435333E-001	-2.149806590750813E-003
-1.900000125169754E-001	-2.147934632375836E-003
-1.890000104904175E-001	-2.146067563444376E-003
-1.880000084638596E-001	-2.144205151125789E-003
-1.870000064373016E-001	-2.142347861081362E-003
-1.860000044107437E-001	-2.140495460480452E-003
-1.850000172853470E-001	-2.138647716492414E-003
-1.840000152587891E-001	-2.136804629117250E-003
-1.830000132322311E-001	-2.134966431185603E-003
-1.820000112056732E-001	-2.133133122697473E-003
-1.810000091791153E-001	-2.131304237991571E-003
-1.800000071525574E-001	-2.129480242729187E-003
-1.790000051259995E-001	-2.127660904079676E-003
-1.780000030994415E-001	-2.125845989212394E-003
-1.770000159740448E-001	-2.124035963788629E-003
-1.760000139474869E-001	-2.122230362147093E-003
-1.750000119209290E-001	-2.120429649949074E-003
-1.740000098943710E-001	-2.118633128702641E-003
-1.730000078678131E-001	-2.116841264069080E-003
-1.720000058412552E-001	-2.115054056048393E-003
-1.710000038146973E-001	-2.113271271809936E-003
-1.700000166893005E-001	-2.111492911353707E-003
-1.690000146627426E-001	-2.109718974679708E-003
-1.680000126361847E-001	-2.107949694618583E-003
-1.670000106096268E-001	-2.106184605509043E-003
-1.660000085830688E-001	-2.104423940181732E-003
-1.650000065565109E-001	-2.102667698636651E-003
-1.640000045299530E-001	-2.100915880873799E-003
-1.630000025033951E-001	-2.099168254062533E-003
-1.620000153779984E-001	-2.097425051033497E-003
-1.610000133514404E-001	-2.095686038956046E-003
-1.600000113248825E-001	-2.093951450660825E-003
-1.590000092983246E-001	-2.092221053317189E-003
-1.580000072717667E-001	-2.090494846925139E-003
-1.570000052452087E-001	-2.088772831484675E-003
-1.560000032186508E-001	-2.087055006995797E-003
-1.550000160932541E-001	-2.085341140627861E-003
-1.540000140666962E-001	-2.083631698042154E-003
-1.530000120401382E-001	-2.081926213577390E-003
-1.520000100135803E-001	-2.080224920064211E-003
-1.510000079870224E-001	-2.078527817502618E-003
-1.500000059604645E-001	-2.076834673061967E-003
-1.490000039339066E-001	-2.075145486742258E-003
-1.480000168085098E-001	-2.073460491374135E-003
-1.470000147819519E-001	-2.071779221296310E-003
-1.460000127553940E-001	-2.070102142170072E-003
-1.450000107288361E-001	-2.068429021164775E-003
-1.440000087022781E-001	-2.066759625449777E-003
-1.430000066757202E-001	-2.065094420686364E-003
-1.420000046491623E-001	-2.063432941213250E-003
-1.410000026226044E-001	-2.061775419861078E-003
-1.400000154972076E-001	-2.060121623799205E-003
-1.390000134706497E-001	-2.058471785858274E-003
-1.380000114440918E-001	-2.056825673207641E-003
-1.370000094175339E-001	-2.055183285847306E-003
-1.360000073909760E-001	-2.053544623777270E-003
-1.350000053644180E-001	-2.051909919828177E-003
-1.340000033378601E-001	-2.050278708338737E-003
-1.330000162124634E-001	-2.048651222139597E-003
-1.320000141859055E-001	-2.047027461230755E-003
-1.310000121593475E-001	-2.045407192781568E-003
-1.300000101327896E-001	-2.043790649622679E-003
-1.290000081062317E-001	-2.042177831754088E-003
-1.280000060796738E-001	-2.040568506345153E-003
-1.270000040531158E-001	-2.038962673395872E-003
-1.260000020265579E-001	-2.037360332906246E-003
-1.250000149011612E-001	-2.035761484876275E-003
-1.240000128746033E-001	-2.034166129305959E-003
-1.230000108480453E-001	-2.032574266195297E-003
-1.220000088214874E-001	-2.030985662713647E-003
-1.210000067949295E-001	-2.029400784522295E-003
-1.200000122189522E-001	-2.027818933129311E-003
-1.190000101923943E-001	-2.026240574195981E-003
-1.180000081658363E-001	-2.024665474891663E-003
-1.170000061392784E-001	-2.023093635216355E-003
-1.160000115633011E-001	-2.021525055170059E-003
-1.150000095367432E-001	-2.019959734752774E-003
-1.140000075101852E-001	-2.018397673964500E-003
-1.130000054836273E-001	-2.016838639974594E-003
-1.120000109076500E-001	-2.015282865613699E-003
-1.110000088810921E-001	-2.013730118051171E-003
-1.100000068545341E-001	-2.012180397287011E-003
-1.090000122785568E-001	-2.010633703321218E-003
-1.080000102519989E-001	-2.009090036153793E-003
-1.070000082254410E-001	-2.007549395784736E-003
-1.060000061988831E-001	-2.006011549383402E-003
-1.050000116229057E-001	-2.004476729780436E-003
-1.040000095963478E-001	-2.002944936975837E-003
-1.030000075697899E-001	-2.001415705308318E-003
-1.020000055432320E-001	-1.999889267608523E-003
-1.010000109672546E-001	-1.998365623876452E-003
-1.000000089406967E-001	-1.996844774112105E-003
-9.900000691413879E-002	-1.995326485484838E-003
-9.800001233816147E-002	-1.993810990825295E-003
-9.700001031160355E-002	-1.992297824472189E-003
-9.600000828504562E-002	-1.990787219256163E-003
-9.500000625848770E-002	-1.989279408007860E-003
-9.400001168251038E-002	-1.987773692235351E-003
-9.300000965595245E-002	-1.986270537599921E-003
-9.200000762939453E-002	-1.984769711270928E-003
-9.100000560283661E-002	-1.983271213248372E-003
-9.000001102685928E-002	-1.981775043532252E-003
-8.900000900030136E-002	-1.980280736461282E-003
-8.800000697374344E-002	-1.978788990527391E-003
-8.700001239776611E-002	-1.977299107238650E-003
-8.600001037120819E-002	-1.975811086595058E-003
-8.500000834465027E-002	-1.974325161427259E-003
-8.400000631809235E-002	-1.972841331735253E-003
-8.300001174211502E-002	-1.971359131857753E-003
-8.200000971555710E-002	-1.969878794625402E-003
-8.100000768899918E-002	-1.968400087207556E-003
-8.000000566244125E-002	-1.966923009604216E-003
-7.900001108646393E-002	-1.965447561815381E-003
-7.800000905990601E-002	-1.963973511010408E-003
-7.700000703334808E-002	-1.962500857189298E-003
-7.600000500679016E-002	-1.961029600352049E-003
-7.500001043081284E-002	-1.959559507668018E-003
-7.400000840425491E-002	-1.958090579137206E-003
-7.300000637769699E-002	-1.956622814759612E-003
-7.200001180171967E-002	-1.955155981704593E-003
-7.100000977516174E-002	-1.953689847141504E-003
-7.000000774860382E-002	-1.952224760316312E-003
-6.900000572204590E-002	-1.950760255567729E-003
-6.800001114606857E-002	-1.949296332895756E-003
-6.700000911951065E-002	-1.947832875885069E-003
-6.600000709295273E-002	-1.946369884535670E-003
-6.500000506639481E-002	-1.944907009601593E-003
-6.400001049041748E-002	-1.943444251082838E-003
-6.300000846385956E-002	-1.941981492564082E-003
-6.200001016259193E-002	-1.940518734045327E-003
-6.100000813603401E-002	-1.939055626280606E-003
-6.000000983476639E-002	-1.937592052854598E-003
-5.900000780820847E-002	-1.936128013767302E-003
-5.800000950694084E-002	-1.934663276188076E-003
-5.700000748038292E-002	-1.933197607286274E-003
-5.600000917911530E-002	-1.931731007061899E-003
-5.500000715255737E-002	-1.930263242684305E-003
-5.400000885128975E-002	-1.928794081322849E-003
-5.300000682473183E-002	-1.927323522977531E-003
-5.200000852346420E-002	-1.925851101987064E-003
-5.100000649690628E-002	-1.924376818351448E-003
-5.000000819563866E-002	-1.922900555655360E-003
-4.900000989437103E-002	-1.921421848237515E-003
-4.800000786781311E-002	-1.919940696097910E-003
-4.700000956654549E-002	-1.918456866405904E-003
-4.600000753998756E-002	-1.916970009915531E-003
-4.500000923871994E-002	-1.915479893796146E-003
-4.400000721216202E-002	-1.913986401632428E-003
-4.300000891089439E-002	-1.912489184178412E-003
-4.200000688433647E-002	-1.910987892188132E-003
-4.100000858306885E-002	-1.909482525661588E-003
-4.000000655651093E-002	-1.907972502522171E-003
-3.900000825524330E-002	-1.906457706354558E-003
-3.800000622868538E-002	-1.904937671497464E-003
-3.700000792741776E-002	-1.903412281535566E-003
-3.600000962615013E-002	-1.901880954392254E-003
-3.500000759959221E-002	-1.900343573652208E-003
-3.400000929832459E-002	-1.898799673654139E-003
-3.300000727176666E-002	-1.897248905152082E-003
-3.200000897049904E-002	-1.895690802484751E-003
-3.100000880658627E-002	-1.894125132821500E-003
-3.000000864267349E-002	-1.892551314085722E-003
-2.900000847876072E-002	-1.890968880616128E-003
-2.800000831484795E-002	-1.889377599582076E-003
-2.700000815093517E-002	-1.887776888906956E-003
-2.600000798702240E-002	-1.886166166514158E-003
-2.500000782310963E-002	-1.884544966742396E-003
-2.400000765919685E-002	-1.882912940345705E-003
-2.300000749528408E-002	-1.881269272416830E-003
-2.200000733137131E-002	-1.879613613709807E-003
-2.100000716745853E-002	-1.877945265732706E-003
-2.000000700354576E-002	-1.876263646408916E-003
-1.900000683963299E-002	-1.874568173661828E-003
-1.800000853836536E-002	-1.872858032584190E-003
-1.700000837445259E-002	-1.871132757514715E-003
-1.600000821053982E-002	-1.869391417130828E-003
-1.500000804662704E-002	-1.867633429355919E-003
-1.400000788271427E-002	-1.865857979282737E-003
-1.300000771880150E-002	-1.864064135588706E-003
-1.200000755488873E-002	-1.862251316197217E-003
-1.100000739097595E-002	-1.860418473370373E-003
-1.000000722706318E-002	-1.858564792200923E-003
-9.000007994472981E-003	-1.856689341366291E-003
-8.000007830560207E-003	-1.854791073128581E-003
-7.000007666647434E-003	-1.852869172580540E-003
-6.000007502734661E-003	-1.850922359153628E-003
-5.000007338821888E-003	-1.848949701525271E-003
-4.000007640570402E-003	-1.846950035542250E-003
-3.000007476657629E-003	-1.844922197051346E-003
-2.000007545575500E-003	-1.842864905484021E-003
-1.000007498078048E-003	-1.840777113102376E-003
-7.450580596923828E-009	-1.838657190091908E-003
9.999925969168544E-004	-1.836504088714719E-003
1.999992644414306E-003	-1.834316179156303E-003
2.999992575496435E-003	-1.832092064432800E-003
3.999992739409208E-003	-1.829830114729702E-003
4.999992437660694E-003	-1.827528933063149E-003
5.999992601573467E-003	-1.825186889618635E-003
6.999992765486240E-003	-1.822802005335689E-003
7.999992929399014E-003	-1.820372766815126E-003
8.999993093311787E-003	-1.817897194996476E-003
9.999992325901985E-003	-1.815373427234590E-003
1.099999248981476E-002	-1.812799368053675E-003
1.199999265372753E-002	-1.810173154808581E-003
1.299999281764030E-002	-1.807492459192872E-003
1.399999298155308E-002	-1.804755069315434E-003
1.499999314546585E-002	-1.801958773285151E-003
1.599999330937862E-002	-1.799101009964943E-003
1.699999347329140E-002	-1.796179451048374E-003
1.799999363720417E-002	-1.793191418983042E-003
1.899999193847179E-002	-1.790134119801223E-003
1.999999210238457E-002	-1.787004992365837E-003
2.099999226629734E-002	-1.783800893463194E-003
2.199999243021011E-002	-1.780518912710249E-003
2.299999259412289E-002	-1.777155906893313E-003
2.399999275803566E-002	-1.773708732798696E-003
2.499999292194843E-002	-1.770173781551421E-003
2.599999308586121E-002	-1.766547793522477E-003
2.699999324977398E-002	-1.762826927006245E-003
2.799999341368675E-002	-1.759007573127747E-003
2.899999357759953E-002	-1.755085773766041E-003
2.999999374151230E-002	-1.751057337969542E-003
3.099999390542507E-002	-1.746918191201985E-003
3.199999406933784E-002	-1.742664026096463E-003
3.299999237060547E-002	-1.738290069624782E-003
3.399999439716339E-002	-1.733791665174067E-003
3.499999269843102E-002	-1.729164039716125E-003
3.599999472498894E-002	-1.724402070976794E-003
3.699999302625656E-002	-1.719500520266593E-003
3.799999132752419E-002	-1.714453799650073E-003
3.899999335408211E-002	-1.709256437607110E-003
3.999999165534973E-002	-1.703902496956289E-003
4.099999368190765E-002	-1.698385924100876E-003
4.199999198317528E-002	-1.692700199782848E-003
4.299999400973320E-002	-1.686839153990150E-003
4.399999231100082E-002	-1.680795685388148E-003
4.499999433755875E-002	-1.674562925472856E-003
4.599999263882637E-002	-1.668133656494319E-003
4.699999466538429E-002	-1.661500078625977E-003
4.799999296665192E-002	-1.654654741287231E-003
4.899999499320984E-002	-1.647589262574911E-003
4.999999329447746E-002	-1.640295377001166E-003
5.099999159574509E-002	-1.632764469832182E-003
5.199999362230301E-002	-1.624987460672855E-003
5.299999192357063E-002	-1.616955036297441E-003
5.399999395012856E-002	-1.608657650649548E-003
5.499999225139618E-002	-1.600085292011499E-003
5.599999427795410E-002	-1.591227715834975E-003
5.699999257922173E-002	-1.582074211910367E-003
5.799999460577965E-002	-1.572613720782101E-003
5.899999290704727E-002	-1.562834950163960E-003
5.999999493360519E-002	-1.552726142108440E-003
6.099999323487282E-002	-1.542274956591427E-003
6.199999526143074E-002	-1.531468937173486E-003
6.299999356269836E-002	-1.520295045338571E-003
6.399999558925629E-002	-1.508739893324673E-003
6.499999016523361E-002	-1.496789627708495E-003
6.599999219179153E-002	-1.484430045820773E-003
6.699999421834946E-002	-1.471646246500313E-003
6.799999624490738E-002	-1.458423095755279E-003
6.899999082088470E-002	-1.444744877517223E-003
6.999999284744263E-002	-1.430595526471734E-003
7.099999487400055E-002	-1.415958395227790E-003
7.199999690055847E-002	-1.400816137902439E-003
7.299999147653580E-002	-1.385151408612728E-003
7.399999350309372E-002	-1.368945697322488E-003
7.499999552965164E-002	-1.352180610410869E-003
7.599999010562897E-002	-1.334836822934449E-003
7.699999213218689E-002	-1.316894544288516E-003
7.799999415874481E-002	-1.298333518207073E-003
7.899999618530273E-002	-1.279133022762835E-003
7.999999076128006E-002	-1.259271753951907E-003
8.099999278783798E-002	-1.238727592863142E-003
8.199999481439590E-002	-1.217478304170072E-003
8.299999684095383E-002	-1.195500837638974E-003
8.399999141693115E-002	-1.172771677374840E-003
8.499999344348907E-002	-1.149266841821373E-003
8.599999547004700E-002	-1.124961767345667E-003
8.699999749660492E-002	-1.099831308238208E-003
8.799999207258224E-002	-1.073849969543517E-003
8.899999409914017E-002	-1.046991557814181E-003
8.999999612569809E-002	-1.019229646772146E-003
9.099999070167542E-002	-9.905372280627489E-004
9.199999272823334E-002	-9.608868276700377E-004
9.299999475479126E-002	-9.302505059167743E-004
9.399999678134918E-002	-8.986002067103982E-004
9.499999135732651E-002	-8.659071754664183E-004
9.599999338388443E-002	-8.321425993926823E-004
9.699999541044235E-002	-7.972772000357509E-004
9.799999743700027E-002	-7.612816989421844E-004
9.899999201297760E-002	-7.241263519972563E-004
9.999999403953552E-002	-6.857814150862396E-004
1.009999960660934E-001	-6.462171440944076E-004
1.019999906420708E-001	-6.054035620763898E-004
1.029999926686287E-001	-5.633109831251204E-004
1.039999946951866E-001	-5.199096049182117E-004
1.049999967217445E-001	-4.751699743792415E-004
1.059999912977219E-001	-4.290629003662616E-004
1.069999933242798E-001	-3.815595118794590E-004
1.079999953508377E-001	-3.326314326841384E-004
1.089999973773956E-001	-2.822508104145527E-004
1.099999919533730E-001	-2.303905348526314E-004
1.109999939799309E-001	-1.770242379279807E-004
1.119999960064888E-001	-1.221264828927815E-004
1.129999905824661E-001	-6.567283708136529E-005
1.139999926090240E-001	-7.640077456017025E-006
1.149999946355820E-001	5.199373481445946E-005
1.159999966621399E-001	1.132490724558011E-004
1.169999912381172E-001	1.761448074830696E-004
1.179999932646751E-001	2.406980347586796E-004
1.189999952912331E-001	3.069239319302142E-004
1.199999973177910E-001	3.748355957213789E-004
1.209999918937683E-001	4.444437799975276E-004
1.219999939203262E-001	5.157568957656622E-004
1.229999959468842E-001	5.887806182727218E-004
1.239999979734421E-001	6.635179743170738E-004
1.249999925494194E-001	7.399687892757356E-004
1.259999871253967E-001	8.181299199350178E-004
1.269999891519547E-001	8.979946724139154E-004
1.279999911785126E-001	9.795529767870903E-004
1.289999932050705E-001	1.062790979631245E-003
1.299999952316284E-001	1.147690811194479E-003
1.309999972581863E-001	1.234230701811612E-003
1.319999992847443E-001	1.322384458035231E-003
1.330000013113022E-001	1.412121811881661E-003
1.339999884366989E-001	1.503407489508390E-003
1.349999904632568E-001	1.596202026121318E-003
1.359999924898148E-001	1.690460834652185E-003
1.369999945163727E-001	1.786134438589215E-003
1.379999965429306E-001	1.883168471977115E-003
1.389999985694885E-001	1.981503563001752E-003
1.400000005960464E-001	2.081074751913548E-003
1.409999877214432E-001	2.181812655180693E-003
1.419999897480011E-001	2.283642301335931E-003
1.429999917745590E-001	2.386483596637845E-003
1.439999938011169E-001	2.490251325070858E-003
1.449999958276749E-001	2.594855148345232E-003
1.459999978542328E-001	2.700200071558356E-003
1.469999998807907E-001	2.806186443194747E-003
1.480000019073486E-001	2.912709256634116E-003
1.489999890327454E-001	3.019659779965878E-003
1.499999910593033E-001	3.126924857497215E-003
1.509999930858612E-001	3.234387142583728E-003
1.519999951124191E-001	3.341926028952003E-003
1.529999971389771E-001	3.449417185038328E-003
1.539999991655350E-001	3.556733485311270E-003
1.550000011920929E-001	3.663744777441025E-003
1.559999883174896E-001	3.770319512113929E-003
1.569999903440475E-001	3.876323578879237E-003
1.579999923706055E-001	3.981621935963631E-003
1.589999943971634E-001	4.086078144609928E-003
1.599999964237213E-001	4.189555533230305E-003
1.609999984502792E-001	4.291918594390154E-003
1.620000004768372E-001	4.393030423671007E-003
1.629999876022339E-001	4.492757376283407E-003
1.639999896287918E-001	4.590966273099184E-003
1.649999916553497E-001	4.687525331974030E-003
1.659999936819077E-001	4.782307893037796E-003
1.669999957084656E-001	4.875187762081623E-003
1.679999977350235E-001	4.966044798493385E-003
1.689999997615814E-001	5.054761189967394E-003
1.700000017881393E-001	5.141224712133408E-003
1.709999889135361E-001	5.225328728556633E-003
1.719999909400940E-001	5.306970328092575E-003
1.729999929666519E-001	5.386054515838623E-003
1.739999949932098E-001	5.462491419166327E-003
1.749999970197678E-001	5.536197684705257E-003
1.759999990463257E-001	5.607097409665585E-003
1.770000010728836E-001	5.675120744854212E-003
1.779999881982803E-001	5.740206688642502E-003
1.789999902248383E-001	5.802299827337265E-003
1.799999922513962E-001	5.861353594809771E-003
1.809999942779541E-001	5.917327944189310E-003
1.819999963045120E-001	5.970192141830921E-003
1.829999983310699E-001	6.019921507686377E-003
1.840000003576279E-001	6.066499277949333E-003
1.850000023841858E-001	6.109917070716619E-003
1.859999895095825E-001	6.150172557681799E-003
1.869999915361404E-001	6.187271326780319E-003
1.879999935626984E-001	6.221225485205650E-003
1.889999955892563E-001	6.252055522054434E-003
1.899999976158142E-001	6.279785651713610E-003
1.909999996423721E-001	6.304448936134577E-003
1.920000016689301E-001	6.326083093881607E-003
1.929999887943268E-001	6.344731431454420E-003
1.939999908208847E-001	6.360443308949471E-003
1.949999928474426E-001	6.373271811753511E-003
1.959999948740005E-001	6.383275613188744E-003
1.969999969005585E-001	6.390517111867666E-003
1.979999989271164E-001	6.395062897354364E-003
1.990000009536743E-001	6.396982353180647E-003
1.999999880790710E-001	6.396348588168621E-003
2.009999901056290E-001	6.393237970769405E-003
2.019999921321869E-001	6.387726869434118E-003
2.029999941587448E-001	6.379896774888039E-003
2.039999961853027E-001	6.369828246533871E-003
2.049999982118607E-001	6.357604637742043E-003
2.060000002384186E-001	6.343309767544270E-003
2.070000022649765E-001	6.327028386294842E-003
2.079999893903732E-001	6.308844778686762E-003
2.089999914169312E-001	6.288844626396894E-003
2.099999934434891E-001	6.267112679779530E-003
2.109999954700470E-001	6.243733223527670E-003
2.119999974966049E-001	6.218790076673031E-003
2.129999995231628E-001	6.192365661263466E-003
2.140000015497208E-001	6.164542865008116E-003
2.149999886751175E-001	6.135401781648397E-003
2.159999907016754E-001	6.105022039264441E-003
2.169999927282333E-001	6.073480471968651E-003
2.179999947547913E-001	6.040853913873434E-003
2.189999967813492E-001	6.007216405123472E-003
2.199999988079071E-001	5.972640123218298E-003
2.210000008344650E-001	5.937195848673582E-003
2.220000028610229E-001	5.900951102375984E-003
2.229999899864197E-001	5.863972939550877E-003
2.239999920129776E-001	5.826324690133333E-003
2.249999940395355E-001	5.788069218397141E-003
2.259999960660934E-001	5.749265197664499E-003
2.269999980926514E-001	5.709969904273748E-003
2.280000001192093E-001	5.670239683240652E-003
2.290000021457672E-001	5.630126688629389E-003
2.299999892711639E-001	5.589681211858988E-003
2.309999912977219E-001	5.548952613025904E-003
2.319999933242798E-001	5.507986992597580E-003
2.329999953508377E-001	5.466828588396311E-003
2.339999973773956E-001	5.425518844276667E-003
2.349999994039536E-001	5.384098272770643E-003
2.360000014305115E-001	5.342605058103800E-003
2.370000034570694E-001	5.301074590533972E-003
2.379999905824661E-001	5.259540863335133E-003
2.389999926090240E-001	5.218036472797394E-003
2.399999946355820E-001	5.176591686904430E-003
2.409999966621399E-001	5.135234445333481E-003
2.419999986886978E-001	5.093992222100496E-003
2.430000007152557E-001	5.052889697253704E-003
2.440000027418137E-001	5.011950619518757E-003
2.449999898672104E-001	4.971196409314871E-003
2.459999918937683E-001	4.930648487061262E-003
2.469999939203262E-001	4.890325013548136E-003
2.479999959468842E-001	4.850244615226984E-003
2.489999979734421E-001	4.810422658920288E-003
2.500000000000000E-001	4.770874511450529E-003
2.509999871253967E-001	4.731614608317614E-003
2.520000040531158E-001	4.692655056715012E-003
2.529999911785126E-001	4.654007498174906E-003
2.540000081062317E-001	4.615683108568192E-003
2.549999952316284E-001	4.577691201120615E-003
2.559999823570251E-001	4.540040623396635E-003
2.569999992847443E-001	4.502738360315561E-003
2.579999864101410E-001	4.465792328119278E-003
2.590000033378601E-001	4.429208114743233E-003
2.599999904632568E-001	4.392991308122873E-003
2.610000073909760E-001	4.357146564871073E-003
2.619999945163727E-001	4.321677144616842E-003
2.629999816417694E-001	4.286587238311768E-003
2.639999985694885E-001	4.251879639923573E-003
2.649999856948853E-001	4.217555746436119E-003
2.660000026226044E-001	4.183617420494556E-003
2.669999897480011E-001	4.150066059082747E-003
2.680000066757202E-001	4.116902127861977E-003
2.689999938011169E-001	4.084125626832247E-003
2.700000107288361E-001	4.051737021654844E-003
2.709999978542328E-001	4.019735381007195E-003
2.719999849796295E-001	3.988119307905436E-003
2.730000019073486E-001	3.956888336688280E-003
2.739999890327454E-001	3.926040604710579E-003
2.750000059604645E-001	3.895574482157826E-003
2.759999930858612E-001	3.865487407892942E-003
2.770000100135803E-001	3.835777286440134E-003
2.779999971389771E-001	3.806441323831677E-003
2.789999842643738E-001	3.777477191761136E-003
2.800000011920929E-001	3.748881863430142E-003
2.809999883174896E-001	3.720652079209685E-003
2.820000052452087E-001	3.692784346640110E-003
2.829999923706055E-001	3.665275638923049E-003
2.840000092983246E-001	3.638122463598847E-003
2.849999964237213E-001	3.611320862546563E-003
2.859999835491180E-001	3.584867110475898E-003
2.870000004768372E-001	3.558757482096553E-003
2.879999876022339E-001	3.532988252118230E-003
2.890000045299530E-001	3.507555229589343E-003
2.899999916553497E-001	3.482454223558307E-003
2.910000085830688E-001	3.457681275904179E-003
2.919999957084656E-001	3.433232428506017E-003
2.929999828338623E-001	3.409103490412235E-003
2.939999997615814E-001	3.385290037840605E-003
2.949999868869781E-001	3.361787879839540E-003
2.960000038146973E-001	3.338592825457454E-003
2.969999909400940E-001	3.315700916573405E-003
2.980000078678131E-001	3.293107496574521E-003
2.989999949932098E-001	3.270808607339859E-003
3.000000119209290E-001	3.248800057917833E-003
3.009999990463257E-001	3.227077424526215E-003
3.019999861717224E-001	3.205636516213417E-003
3.030000030994415E-001	3.184473374858499E-003
3.039999902248383E-001	3.163583809509873E-003
3.050000071525574E-001	3.142963629215956E-003
3.059999942779541E-001	3.122608410194516E-003
3.070000112056732E-001	3.102514659985900E-003
3.079999983310699E-001	3.082677954807878E-003
3.089999854564667E-001	3.063094569370151E-003
3.100000023841858E-001	3.043760312721133E-003
3.109999895095825E-001	3.024671226739883E-003
3.120000064373016E-001	3.005823818966746E-003
3.129999935626984E-001	2.987213898450136E-003
3.140000104904175E-001	2.968837739899755E-003
3.149999976158142E-001	2.950691618025303E-003
3.159999847412109E-001	2.932771807536483E-003
3.170000016689301E-001	2.915074815973639E-003
3.179999887943268E-001	2.897596918046474E-003
3.190000057220459E-001	2.880334621295333E-003
3.199999928474426E-001	2.863284433260560E-003
3.210000097751617E-001	2.846442861482501E-003
3.219999969005585E-001	2.829806413501501E-003
3.229999840259552E-001	2.813371829688549E-003
3.240000009536743E-001	2.797135617583990E-003
3.249999880790710E-001	2.781094983220100E-003
3.260000050067902E-001	2.765246201306582E-003
3.269999921321869E-001	2.749586477875710E-003
3.280000090599060E-001	2.734112553298473E-003
3.289999961853027E-001	2.718821400776505E-003
3.299999833106995E-001	2.703710226342082E-003
3.310000002384186E-001	2.688775770366192E-003
3.319999873638153E-001	2.674015006050467E-003
3.330000042915344E-001	2.659425605088472E-003
3.339999914169312E-001	2.645004307851195E-003
3.350000083446503E-001	2.630748553201556E-003
3.359999954700470E-001	2.616655547171831E-003
3.370000123977661E-001	2.602722495794296E-003
3.379999995231628E-001	2.588947303593159E-003
3.389999866485596E-001	2.575326710939407E-003
3.400000035762787E-001	2.561858622357249E-003
3.409999907016754E-001	2.548540476709604E-003
3.420000076293945E-001	2.535369945690036E-003
3.429999947547913E-001	2.522344235330820E-003
3.440000116825104E-001	2.509461482986808E-003
3.449999988079071E-001	2.496718894690275E-003
3.459999859333038E-001	2.484114607796073E-003
3.470000028610229E-001	2.471646293997765E-003
3.479999899864197E-001	2.459311857819557E-003
3.490000069141388E-001	2.447108738124371E-003
3.499999940395355E-001	2.435035305097699E-003
3.510000109672546E-001	2.423089230433106E-003
3.519999980926514E-001	2.411268418654799E-003
3.529999852180481E-001	2.399571239948273E-003
3.540000021457672E-001	2.387995366007090E-003
3.549999892711639E-001	2.376539167016745E-003
3.560000061988831E-001	2.365200547501445E-003
3.569999933242798E-001	2.353977644816041E-003
3.580000102519989E-001	2.342868829146028E-003
3.589999973773956E-001	2.331872237846255E-003
3.599999845027924E-001	2.320986241102219E-003
3.610000014305115E-001	2.310208743438125E-003
3.619999885559082E-001	2.299538580700755E-003
3.630000054836273E-001	2.288973657414317E-003
3.639999926090240E-001	2.278512809425592E-003
3.650000095367432E-001	2.268153941258788E-003
3.659999966621399E-001	2.257895888760686E-003
3.669999837875366E-001	2.247737022116780E-003
3.680000007152557E-001	2.237675711512566E-003
3.689999878406525E-001	2.227710559964180E-003
3.700000047683716E-001	2.217840170487762E-003
3.709999918937683E-001	2.208063146099448E-003
3.720000088214874E-001	2.198378089815378E-003
3.729999959468842E-001	2.188783604651690E-003
3.740000128746033E-001	2.179278293624520E-003
3.750000000000000E-001	2.169860759750009E-003
3.759999871253967E-001	2.160530071705580E-003
3.770000040531158E-001	2.151284599676728E-003
3.779999911785126E-001	2.142123412340879E-003
3.790000081062317E-001	2.133044879883528E-003
3.799999952316284E-001	2.124048303812742E-003
3.810000121593475E-001	2.115132054314017E-003
3.819999992847443E-001	2.106295432895422E-003
3.829999864101410E-001	2.097536809742451E-003
3.840000033378601E-001	2.088855486363173E-003
3.849999904632568E-001	2.080250298604369E-003
3.860000073909760E-001	2.071719849482179E-003
3.869999945163727E-001	2.063263440504670E-003
3.880000114440918E-001	2.054880140349269E-003
3.889999985694885E-001	2.046568552032113E-003
3.899999856948853E-001	2.038327744230628E-003
3.910000026226044E-001	2.030157018452883E-003
3.919999897480011E-001	2.022055210545659E-003
3.930000066757202E-001	2.014021622017026E-003
3.939999938011169E-001	2.006054855883121E-003
3.950000107288361E-001	1.998154446482658E-003
3.959999978542328E-001	1.990319229662418E-003
3.969999849796295E-001	1.982548506930470E-003
3.980000019073486E-001	1.974841579794884E-003
3.989999890327454E-001	1.967197051271796E-003
4.000000059604645E-001	1.959614688530564E-003
4.009999930858612E-001	1.952093211002648E-003
4.020000100135803E-001	1.944632153026760E-003
4.029999971389771E-001	1.937230583280325E-003
4.039999842643738E-001	1.929887686856091E-003
4.050000011920929E-001	1.922602881677449E-003
4.059999883174896E-001	1.915375236421824E-003
4.070000052452087E-001	1.908204169012606E-003
4.079999923706055E-001	1.901088748127222E-003
4.090000092983246E-001	1.894028508104384E-003
4.099999964237213E-001	1.887022634036839E-003
4.110000133514404E-001	1.880070543847978E-003
4.120000004768372E-001	1.873171306215227E-003
4.129999876022339E-001	1.866324571892619E-003
4.140000045299530E-001	1.859529525972903E-003
4.149999916553497E-001	1.852785586379468E-003
4.160000085830688E-001	1.846092054620385E-003
4.169999957084656E-001	1.839448465034366E-003
4.180000126361847E-001	1.832854002714157E-003
4.189999997615814E-001	1.826308318413794E-003
4.199999868869781E-001	1.819810597226024E-003
4.210000038146973E-001	1.813360373489559E-003
4.219999909400940E-001	1.806957065127790E-003
4.230000078678131E-001	1.800600206479430E-003
4.239999949932098E-001	1.794289099052548E-003
4.250000119209290E-001	1.788023277185857E-003
4.259999990463257E-001	1.781802158802748E-003
4.269999861717224E-001	1.775625278241932E-003
4.280000030994415E-001	1.769492169842124E-003
4.289999902248383E-001	1.763402135111392E-003
4.300000071525574E-001	1.757354941219091E-003
4.309999942779541E-001	1.751350006088614E-003
4.320000112056732E-001	1.745386747643352E-003
4.329999983310699E-001	1.739464700222015E-003
4.339999854564667E-001	1.733583514578640E-003
4.350000023841858E-001	1.727742725051939E-003
4.359999895095825E-001	1.721941749565303E-003
4.370000064373016E-001	1.716180238872767E-003
4.379999935626984E-001	1.710457843728364E-003
4.390000104904175E-001	1.704773982055485E-003
4.399999976158142E-001	1.699128188192844E-003
4.409999847412109E-001	1.693520229309797E-003
4.420000016689301E-001	1.687949639745057E-003
4.429999887943268E-001	1.682415953837335E-003
4.440000057220459E-001	1.676918822340667E-003
4.449999928474426E-001	1.671457779593766E-003
4.460000097751617E-001	1.666032476350665E-003
4.469999969005585E-001	1.660642679780722E-003
4.480000138282776E-001	1.655287691392004E-003
4.490000009536743E-001	1.649967511184514E-003
4.499999880790710E-001	1.644681557081640E-003
4.510000050067902E-001	1.639429479837418E-003
4.519999921321869E-001	1.634210930205882E-003
4.530000090599060E-001	1.629025675356388E-003
4.539999961853027E-001	1.623873249627650E-003
4.550000131130219E-001	1.618753303773701E-003
4.560000002384186E-001	1.613665604963899E-003
4.569999873638153E-001	1.608609803952277E-003
4.580000042915344E-001	1.603585551492870E-003
4.589999914169312E-001	1.598592498339713E-003
4.600000083446503E-001	1.593630411662161E-003
4.609999954700470E-001	1.588698825798929E-003
4.620000123977661E-001	1.583797624334693E-003
4.629999995231628E-001	1.578926458023489E-003
4.639999866485596E-001	1.574084861204028E-003
4.650000035762787E-001	1.569272833876312E-003
4.659999907016754E-001	1.564489793963730E-003
4.670000076293945E-001	1.559735741466284E-003
4.679999947547913E-001	1.555010210722685E-003
4.690000116825104E-001	1.550312852486968E-003
4.699999988079071E-001	1.545643550343812E-003
4.709999859333038E-001	1.541002071462572E-003
4.720000028610229E-001	1.536388066597283E-003
4.729999899864197E-001	1.531801186501980E-003
4.740000069141388E-001	1.527241314761341E-003
4.749999940395355E-001	1.522708218544722E-003
4.760000109672546E-001	1.518201432190835E-003
4.769999980926514E-001	1.513720955699682E-003
4.779999852180481E-001	1.509266439825296E-003
4.790000021457672E-001	1.504837651737034E-003
4.799999892711639E-001	1.500434242188931E-003
4.810000061988831E-001	1.496056211180985E-003
4.819999933242798E-001	1.491703093051910E-003
4.830000102519989E-001	1.487374771386385E-003
4.839999973773956E-001	1.483071013353765E-003
4.850000143051147E-001	1.478791702538729E-003
4.860000014305115E-001	1.474536373279989E-003
4.869999885559082E-001	1.470305025577545E-003
4.880000054836273E-001	1.466097310185432E-003
4.889999926090240E-001	1.461913110688329E-003
4.900000095367432E-001	1.457752194255590E-003
4.909999966621399E-001	1.453614328056574E-003
4.920000135898590E-001	1.449499279260635E-003
4.930000007152557E-001	1.445406931452453E-003
4.939999878406525E-001	1.441337051801384E-003
4.950000047683716E-001	1.437289407476783E-003
4.959999918937683E-001	1.433263765648007E-003
4.970000088214874E-001	1.429260009899735E-003
4.979999959468842E-001	1.425278023816645E-003
4.990000128746033E-001	1.421317458152771E-003
