Ewe/V	I/mA
5.000000000000000E-001	0.000000000000000E+000
4.990000128746033E-001	-4.241479985012120E-007
4.979999959468842E-001	-8.960739705798915E-008
4.970000088214874E-001	-1.555108042339270E-007
4.959999918937683E-001	-1.145492873888543E-007
4.950000047683716E-001	-1.180736717287800E-007
4.939999878406525E-001	-1.115021746045386E-007
4.930000007152557E-001	-1.109461038595327E-007
4.920000135898590E-001	-1.101605633380132E-007
4.909999966621399E-001	-1.106930511696191E-007
4.900000095367432E-001	-1.117265853167737E-007
4.889999926090240E-001	-1.133366183125872E-007
4.880000054836273E-001	-1.153700424083581E-007
4.869999885559082E-001	-1.177900585958014E-007
4.860000014305115E-001	-1.205480941735004E-007
4.850000143051147E-001	-1.236174114183086E-007
4.839999973773956E-001	-1.269767153644352E-007
4.830000102519989E-001	-1.306119230548575E-007
4.819999933242798E-001	-1.345133284758049E-007
4.810000061988831E-001	-1.386748351706046E-007
4.799999892711639E-001	-1.430931320101081E-007
4.790000021457672E-001	-1.477671247585022E-007
4.779999852180481E-001	-1.526975239585227E-007
4.769999980926514E-001	-1.578865607143598E-007
4.760000109672546E-001	-1.633377166854189E-007
4.749999940395355E-001	-1.690556530320464E-007
4.740000069141388E-001	-1.750459404092908E-007
4.729999899864197E-001	-1.813150731777569E-007
4.720000028610229E-001	-1.878703699276230E-007
4.709999859333038E-001	-1.947198597918032E-007
4.699999988079071E-001	-2.018723392893662E-007
4.690000116825104E-001	-2.093372586386977E-007
4.679999947547913E-001	-2.171247359683548E-007
4.670000076293945E-001	-2.252455288953570E-007
4.659999907016754E-001	-2.337110487360405E-007
4.650000035762787E-001	-2.425333320843492E-007
4.639999866485596E-001	-2.517251118661079E-007
4.629999995231628E-001	-2.612996752304753E-007
4.620000123977661E-001	-2.712710056584910E-007
4.609999954700470E-001	-2.816537971739308E-007
4.600000083446503E-001	-2.924633406564681E-007
4.589999914169312E-001	-3.037156659502216E-007
4.580000042915344E-001	-3.154275418637553E-007
4.569999873638153E-001	-3.276164477483690E-007
4.560000002384186E-001	-3.403005734980979E-007
4.550000131130219E-001	-3.534989332365512E-007
4.539999961853027E-001	-3.672313368952018E-007
4.530000090599060E-001	-3.815184754785150E-007
4.519999921321869E-001	-3.963818073771108E-007
4.510000050067902E-001	-4.118437288980203E-007
4.499999880790710E-001	-4.279275458429765E-007
4.490000009536743E-001	-4.446575871952518E-007
4.480000138282776E-001	-4.620590345894016E-007
4.469999969005585E-001	-4.801582349500677E-007
4.460000097751617E-001	-4.989825583834318E-007
4.449999928474426E-001	-5.185603981772147E-007
4.440000057220459E-001	-5.389214834394807E-007
4.429999887943268E-001	-5.600965096164146E-007
4.420000016689301E-001	-5.821175932396727E-007
4.409999847412109E-001	-6.050179877092887E-007
4.399999976158142E-001	-6.288324811976054E-007
4.390000104904175E-001	-6.535969987453427E-007
4.379999935626984E-001	-6.793491706957866E-007
4.370000064373016E-001	-7.061279347908567E-007
4.359999895095825E-001	-7.339738772316196E-007
4.350000023841858E-001	-7.629291189914511E-007
4.339999854564667E-001	-7.930376000331307E-007
4.329999983310699E-001	-8.243449087785848E-007
4.320000112056732E-001	-8.568983957957244E-007
4.309999942779541E-001	-8.907475148589583E-007
4.300000071525574E-001	-9.259434250452614E-007
4.289999902248383E-001	-9.625395023249439E-007
4.280000030994415E-001	-1.000591169031395E-006
4.269999861717224E-001	-1.040156121234759E-006
4.259999990463257E-001	-1.081294271898514E-006
4.250000119209290E-001	-1.124067921409733E-006
4.239999949932098E-001	-1.168541871265916E-006
4.230000078678131E-001	-1.214783537761832E-006
4.219999909400940E-001	-1.262862951989518E-006
4.210000038146973E-001	-1.312852987211954E-006
4.199999868869781E-001	-1.364829245176225E-006
4.189999997615814E-001	-1.418870624547708E-006
4.180000126361847E-001	-1.475058866162726E-006
4.169999957084656E-001	-1.533479235149571E-006
4.160000085830688E-001	-1.594219952494313E-006
4.149999916553497E-001	-1.657373331909184E-006
4.140000045299530E-001	-1.723034756651032E-006
4.129999876022339E-001	-1.791303816389700E-006
4.120000004768372E-001	-1.862283966147515E-006
4.110000133514404E-001	-1.936082526299288E-006
4.099999964237213E-001	-2.012811592067010E-006
4.090000092983246E-001	-2.092586782964645E-006
4.079999923706055E-001	-2.175529516534880E-006
4.070000052452087E-001	-2.261765075672884E-006
4.059999883174896E-001	-2.351423972868361E-006
4.050000011920929E-001	-2.444642177579226E-006
4.039999842643738E-001	-2.541560661484255E-006
4.029999971389771E-001	-2.642326307977783E-006
4.020000100135803E-001	-2.747091684796033E-006
4.009999930858612E-001	-2.856015271390788E-006
4.000000059604645E-001	-2.969261913676746E-006
3.989999890327454E-001	-3.087003278778866E-006
3.980000019073486E-001	-3.209417400285020E-006
3.969999849796295E-001	-3.336689587740693E-006
3.959999978542328E-001	-3.469012426648987E-006
3.950000107288361E-001	-3.606586233217968E-006
3.939999938011169E-001	-3.749619281734340E-006
3.930000066757202E-001	-3.898328031937126E-006
3.919999897480011E-001	-4.052937583765015E-006
3.910000026226044E-001	-4.213681222609011E-006
3.899999856948853E-001	-4.380803147796541E-006
3.889999985694885E-001	-4.554555744107347E-006
3.880000114440918E-001	-4.735201400762890E-006
3.869999945163727E-001	-4.923014330415754E-006
3.860000073909760E-001	-5.118277840665542E-006
3.849999904632568E-001	-5.321287517290330E-006
3.840000033378601E-001	-5.532350769499317E-006
3.829999864101410E-001	-5.751785920438124E-006
3.819999992847443E-001	-5.979925390420249E-006
3.810000121593475E-001	-6.217114332685014E-006
3.799999952316284E-001	-6.463710633397568E-006
3.790000081062317E-001	-6.720087640132988E-006
3.779999911785126E-001	-6.986632797634229E-006
3.770000040531158E-001	-7.263749012054177E-006
3.759999871253967E-001	-7.551854650955647E-006
3.750000000000000E-001	-7.851384907553438E-006
3.740000128746033E-001	-8.162794074451085E-006
3.729999959468842E-001	-8.486550541420002E-006
3.720000088214874E-001	-8.823143616609741E-006
3.709999918937683E-001	-9.173082617053296E-006
3.700000047683716E-001	-9.536895959172398E-006
3.689999878406525E-001	-9.915132068272214E-006
3.680000007152557E-001	-1.030836301652016E-005
3.669999837875366E-001	-1.071718179446179E-005
3.659999966621399E-001	-1.114220594899962E-005
3.650000095367432E-001	-1.158407576440368E-005
3.639999926090240E-001	-1.204345971927978E-005
3.630000054836273E-001	-1.252104902960127E-005
3.619999885559082E-001	-1.301756492466666E-005
3.610000014305115E-001	-1.353375591861550E-005
3.599999845027924E-001	-1.407040053891251E-005
3.589999973773956E-001	-1.462830732634757E-005
3.580000102519989E-001	-1.520831756351981E-005
3.569999933242798E-001	-1.581130527483765E-005
3.560000061988831E-001	-1.643817813601345E-005
3.549999892711639E-001	-1.708988020254765E-005
3.540000021457672E-001	-1.776739372871816E-005
3.529999852180481E-001	-1.847173734859098E-005
3.519999980926514E-001	-1.920397335197777E-005
3.510000109672546E-001	-1.996520040847827E-005
3.499999940395355E-001	-2.075656630040612E-005
3.490000069141388E-001	-2.157925882784184E-005
3.479999899864197E-001	-2.243451672256924E-005
3.470000028610229E-001	-2.332362237211782E-005
3.459999859333038E-001	-2.424791455268860E-005
3.449999988079071E-001	-2.520877933420707E-005
3.440000116825104E-001	-2.620765917527024E-005
3.429999947547913E-001	-2.724605292314664E-005
3.420000076293945E-001	-2.832551945175510E-005
3.409999907016754E-001	-2.944767766166478E-005
3.400000035762787E-001	-3.061420648009516E-005
3.389999866485596E-001	-3.182685759384185E-005
3.379999995231628E-001	-3.308744271635078E-005
3.370000123977661E-001	-3.439785359660164E-005
3.359999954700470E-001	-3.576004382921383E-005
3.350000083446503E-001	-3.717605795827694E-005
3.339999914169312E-001	-3.864800601149909E-005
3.330000042915344E-001	-4.017809260403737E-005
3.319999873638153E-001	-4.176859511062503E-005
3.310000002384186E-001	-4.342189276940189E-005
3.299999833106995E-001	-4.514044485404156E-005
3.289999961853027E-001	-4.692681613960303E-005
3.280000090599060E-001	-4.878366598859429E-005
3.269999921321869E-001	-5.071375926490873E-005
3.260000050067902E-001	-5.271995905786753E-005
3.249999880790710E-001	-5.480525578605011E-005
3.240000009536743E-001	-5.697273445548490E-005
3.229999840259552E-001	-5.922562195337377E-005
3.219999969005585E-001	-6.156724703032523E-005
3.210000097751617E-001	-6.400108395610005E-005
3.199999928474426E-001	-6.653073796769604E-005
3.190000057220459E-001	-6.915993435541168E-005
3.179999887943268E-001	-7.189256575657055E-005
3.170000016689301E-001	-7.473266305169091E-005
3.159999847412109E-001	-7.768440991640091E-005
3.149999976158142E-001	-8.075214282143861E-005
3.140000104904175E-001	-8.394038741244003E-005
3.129999935626984E-001	-8.725381485419348E-005
3.120000064373016E-001	-9.069728548638523E-005
3.109999895095825E-001	-9.427584882359952E-005
3.100000023841858E-001	-9.799473627936095E-005
3.089999854564667E-001	-1.018593757180497E-004
3.079999983310699E-001	-1.058753987308592E-004
3.070000112056732E-001	-1.100486697396263E-004
3.059999942779541E-001	-1.143852496170439E-004
3.050000071525574E-001	-1.188914247904904E-004
3.039999902248383E-001	-1.235737290699035E-004
3.030000030994415E-001	-1.284389436477795E-004
3.019999861717224E-001	-1.334940898232162E-004
3.009999990463257E-001	-1.387464435538277E-004
3.000000119209290E-001	-1.442035572836176E-004
2.989999949932098E-001	-1.498732599429786E-004
2.980000078678131E-001	-1.557636860525236E-004
2.969999909400940E-001	-1.618832466192544E-004
2.960000038146973E-001	-1.682406436884776E-004
2.949999868869781E-001	-1.748449285514653E-004
2.939999997615814E-001	-1.817054580897093E-004
2.929999828338623E-001	-1.888319529825822E-004
2.919999957084656E-001	-1.962344540515915E-004
2.910000085830688E-001	-2.039233513642102E-004
2.899999916553497E-001	-2.119094569934532E-004
2.890000045299530E-001	-2.202039031544700E-004
2.879999876022339E-001	-2.288182586198673E-004
2.870000004768372E-001	-2.377644705120474E-004
2.859999835491180E-001	-2.470549370627850E-004
2.849999964237213E-001	-2.567024203017354E-004
2.840000092983246E-001	-2.667201915755868E-004
2.829999923706055E-001	-2.771219587884843E-004
2.820000052452087E-001	-2.879218372981995E-004
2.809999883174896E-001	-2.991345245391130E-004
2.800000011920929E-001	-3.107751253992319E-004
2.789999842643738E-001	-3.228592686355114E-004
2.779999971389771E-001	-3.354031068738550E-004
2.770000100135803E-001	-3.484232875052840E-004
2.759999930858612E-001	-3.619370982050896E-004
2.750000059604645E-001	-3.759622341021895E-004
2.739999890327454E-001	-3.905170888174325E-004
2.730000019073486E-001	-4.056205216329545E-004
2.719999849796295E-001	-4.212920612189919E-004
2.709999978542328E-001	-4.375518183223903E-004
2.700000107288361E-001	-4.544204857666045E-004
2.689999938011169E-001	-4.719193675555289E-004
2.680000066757202E-001	-4.900704370811582E-004
2.669999897480011E-001	-5.088963662274182E-004
2.660000026226044E-001	-5.284202634356916E-004
2.649999856948853E-001	-5.486661684699357E-004
2.639999985694885E-001	-5.696585285477340E-004
2.629999816417694E-001	-5.914226057939231E-004
2.619999945163727E-001	-6.139843608252704E-004
2.610000073909760E-001	-6.373702781274915E-004
2.599999904632568E-001	-6.616077153012156E-004
2.590000033378601E-001	-6.867244956083596E-004
2.579999864101410E-001	-7.127493154257536E-004
2.569999992847443E-001	-7.397113367915154E-004
2.559999823570251E-001	-7.676405948586762E-004
2.549999952316284E-001	-7.965675904415548E-004
2.540000081062317E-001	-8.265236392617226E-004
2.529999911785126E-001	-8.575406391173601E-004
2.520000040531158E-001	-8.896509534679353E-004
2.509999871253967E-001	-9.228877606801689E-004
2.500000000000000E-001	-9.572847047820687E-004
2.489999979734421E-001	-9.928760118782520E-004
2.479999959468842E-001	-1.029696431942284E-003
2.469999939203262E-001	-1.067781122401357E-003
2.459999918937683E-001	-1.107165706343949E-003
2.449999898672104E-001	-1.147886388935149E-003
2.440000027418137E-001	-1.189979491755366E-003
2.430000007152557E-001	-1.233481802046299E-003
2.419999986886978E-001	-1.278430339880288E-003
2.409999966621399E-001	-1.324862125329673E-003
2.399999946355820E-001	-1.372814527712762E-003
2.389999926090240E-001	-1.422324916347861E-003
2.379999905824661E-001	-1.473430544137955E-003
2.370000034570694E-001	-1.526168431155384E-003
2.360000014305115E-001	-1.580575597472489E-003
2.349999994039536E-001	-1.636688481085002E-003
2.339999973773956E-001	-1.694543519988656E-003
2.329999953508377E-001	-1.754175871610641E-003
2.319999933242798E-001	-1.815620809793472E-003
2.309999912977219E-001	-1.878912211395800E-003
2.299999892711639E-001	-1.944083138369024E-003
2.290000021457672E-001	-2.011165721341968E-003
2.280000001192093E-001	-2.080190461128950E-003
2.269999980926514E-001	-2.151186810806394E-003
2.259999960660934E-001	-2.224182477220893E-003
2.249999940395355E-001	-2.299203304573894E-003
2.239999920129776E-001	-2.376273274421692E-003
2.229999899864197E-001	-2.455413807183504E-003
2.220000028610229E-001	-2.536644693464041E-003
2.210000008344650E-001	-2.619982231408358E-003
2.199999988079071E-001	-2.705440856516361E-003
2.189999967813492E-001	-2.793031278997660E-003
2.179999947547913E-001	-2.882760949432850E-003
2.169999927282333E-001	-2.974634524434805E-003
2.159999907016754E-001	-3.068652236834168E-003
2.149999886751175E-001	-3.164810594171286E-003
2.140000015497208E-001	-3.263102378696203E-003
2.129999995231628E-001	-3.363515250384808E-003
2.119999974966049E-001	-3.466032678261399E-003
2.109999954700470E-001	-3.570633474737406E-003
2.099999934434891E-001	-3.677290864288807E-003
2.089999914169312E-001	-3.785972949117422E-003
2.079999893903732E-001	-3.896642941981554E-003
2.070000022649765E-001	-4.009257536381483E-003
2.060000002384186E-001	-4.123768303543329E-003
2.049999982118607E-001	-4.240120761096478E-003
2.039999961853027E-001	-4.358253441751003E-003
2.029999941587448E-001	-4.478099755942822E-003
2.019999921321869E-001	-4.599586129188538E-003
2.009999901056290E-001	-4.722633399069309E-003
1.999999880790710E-001	-4.847154486924410E-003
1.990000009536743E-001	-4.973057191818953E-003
1.979999989271164E-001	-5.100242327898741E-003
1.969999969005585E-001	-5.228604655712843E-003
1.959999948740005E-001	-5.358032416552305E-003
1.949999928474426E-001	-5.488407332450151E-003
1.939999908208847E-001	-5.619605537503958E-003
1.929999887943268E-001	-5.751497112214565E-003
1.920000016689301E-001	-5.883947014808655E-003
1.909999996423721E-001	-6.016814149916172E-003
1.899999976158142E-001	-6.149953231215477E-003
1.889999955892563E-001	-6.283213850110769E-003
1.879999935626984E-001	-6.416440941393375E-003
1.869999915361404E-001	-6.549476180225611E-003
1.859999895095825E-001	-6.682157982140780E-003
1.850000023841858E-001	-6.814321968704462E-003
1.840000003576279E-001	-6.945800501853228E-003
1.829999983310699E-001	-7.076425012201071E-003
1.819999963045120E-001	-7.206025533378124E-003
1.809999942779541E-001	-7.334431633353233E-003
1.799999922513962E-001	-7.461472414433956E-003
1.789999902248383E-001	-7.586977910250425E-003
1.779999881982803E-001	-7.710780017077923E-003
1.770000010728836E-001	-7.832711562514305E-003
1.759999990463257E-001	-7.952610030770302E-003
1.749999970197678E-001	-8.070312440395355E-003
1.739999949932098E-001	-8.185663260519505E-003
1.729999929666519E-001	-8.298509754240513E-003
1.719999909400940E-001	-8.408705703914166E-003
1.709999889135361E-001	-8.516109548509121E-003
1.700000017881393E-001	-8.620584383606911E-003
1.689999997615814E-001	-8.722003549337387E-003
1.679999977350235E-001	-8.820245973765850E-003
1.669999957084656E-001	-8.915198035538197E-003
1.659999936819077E-001	-9.006754495203495E-003
1.649999916553497E-001	-9.094818495213985E-003
1.639999896287918E-001	-9.179301559925079E-003
1.629999876022339E-001	-9.260125458240509E-003
1.620000004768372E-001	-9.337221272289753E-003
1.609999984502792E-001	-9.410527534782887E-003
1.599999964237213E-001	-9.479994885623455E-003
1.589999943971634E-001	-9.545580483973026E-003
1.579999923706055E-001	-9.607253596186638E-003
1.569999903440475E-001	-9.664990939199924E-003
1.559999883174896E-001	-9.718782268464565E-003
1.550000011920929E-001	-9.768621064722538E-003
1.539999991655350E-001	-9.814514778554440E-003
1.529999971389771E-001	-9.856476448476315E-003
1.519999951124191E-001	-9.894530288875103E-003
1.509999930858612E-001	-9.928706102073193E-003
1.499999910593033E-001	-9.959042072296143E-003
1.489999890327454E-001	-9.985586628317833E-003
1.480000019073486E-001	-1.000839099287987E-002
1.469999998807907E-001	-1.002751570194960E-002
1.459999978542328E-001	-1.004302874207497E-002
1.449999958276749E-001	-1.005499996244907E-002
1.439999938011169E-001	-1.006350759416819E-002
1.429999917745590E-001	-1.006863359361887E-002
1.419999897480011E-001	-1.007046550512314E-002
1.409999877214432E-001	-1.006909273564816E-002
1.400000005960464E-001	-1.006460934877396E-002
1.389999985694885E-001	-1.005711313337088E-002
1.379999965429306E-001	-1.004670374095440E-002
1.369999945163727E-001	-1.003348175436258E-002
1.359999924898148E-001	-1.001755148172379E-002
1.349999904632568E-001	-9.999017231166363E-003
1.339999884366989E-001	-9.977984242141247E-003
1.330000013113022E-001	-9.954559616744518E-003
1.319999992847443E-001	-9.928848594427109E-003
1.309999972581863E-001	-9.900958277285099E-003
1.299999952316284E-001	-9.870993904769421E-003
1.289999932050705E-001	-9.839059785008430E-003
1.279999911785126E-001	-9.805260226130486E-003
1.269999891519547E-001	-9.769698604941368E-003
1.259999871253967E-001	-9.732474572956562E-003
1.249999925494194E-001	-9.693687781691551E-003
1.239999979734421E-001	-9.653436020016670E-003
1.229999959468842E-001	-9.611815214157104E-003
1.219999939203262E-001	-9.568917565047741E-003
1.209999918937683E-001	-9.524834342300892E-003
1.199999973177910E-001	-9.479654021561146E-003
1.189999952912331E-001	-9.433461353182793E-003
1.179999932646751E-001	-9.386341087520123E-003
1.169999912381172E-001	-9.338372386991978E-003
1.159999966621399E-001	-9.289633482694626E-003
1.149999946355820E-001	-9.240199811756611E-003
1.139999926090240E-001	-9.190143086016178E-003
1.129999905824661E-001	-9.139533154666424E-003
1.119999960064888E-001	-9.088435210287571E-003
1.109999939799309E-001	-9.036915376782417E-003
1.099999919533730E-001	-8.985032327473164E-003
1.089999973773956E-001	-8.932846598327160E-003
1.079999953508377E-001	-8.880412206053734E-003
1.069999933242798E-001	-8.827783167362213E-003
1.059999912977219E-001	-8.775008842349052E-003
1.049999967217445E-001	-8.722137659788132E-003
1.039999946951866E-001	-8.669215254485607E-003
1.029999926686287E-001	-8.616283535957336E-003
1.019999906420708E-001	-8.563383482396603E-003
1.009999960660934E-001	-8.510554209351540E-003
9.999999403953552E-002	-8.457830175757408E-003
9.899999201297760E-002	-8.405246771872044E-003
9.799999743700027E-002	-8.352833800017834E-003
9.699999541044235E-002	-8.300622925162315E-003
9.599999338388443E-002	-8.248641155660152E-003
9.499999135732651E-002	-8.196913637220860E-003
9.399999678134918E-002	-8.145464584231377E-003
9.299999475479126E-002	-8.094317279756069E-003
9.199999272823334E-002	-8.043492212891579E-003
9.099999070167542E-002	-7.993008010089397E-003
8.999999612569809E-002	-7.942882366478443E-003
8.899999409914017E-002	-7.893132045865059E-003
8.799999207258224E-002	-7.843771018087864E-003
8.699999749660492E-002	-7.794812787324190E-003
8.599999547004700E-002	-7.746269926428795E-003
8.499999344348907E-002	-7.698153611272573E-003
8.399999141693115E-002	-7.650473155081272E-003
8.299999684095383E-002	-7.603237405419350E-003
8.199999481439590E-002	-7.556454744189978E-003
8.099999278783798E-002	-7.510131224989891E-003
7.999999076128006E-002	-7.464273832738400E-003
7.899999618530273E-002	-7.418886292725801E-003
7.799999415874481E-002	-7.373974192887545E-003
7.699999213218689E-002	-7.329539861530066E-003
7.599999010562897E-002	-7.285587023943663E-003
7.499999552965164E-002	-7.242117542773485E-003
7.399999350309372E-002	-7.199132349342108E-003
7.299999147653580E-002	-7.156633306294680E-003
7.199999690055847E-002	-7.114619947969913E-003
7.099999487400055E-002	-7.073092740029097E-003
6.999999284744263E-002	-7.032050285488367E-003
6.899999082088470E-002	-6.991492118686438E-003
6.799999624490738E-002	-6.951416842639446E-003
6.699999421834946E-002	-6.911822129040957E-003
6.599999219179153E-002	-6.872706115245819E-003
6.499999016523361E-002	-6.834065541625023E-003
6.399999558925629E-002	-6.795898545533419E-003
6.299999356269836E-002	-6.758200936019421E-003
6.199999526143074E-002	-6.720970384776592E-003
6.099999323487282E-002	-6.684202235192060E-003
5.999999493360519E-002	-6.647892761975527E-003
5.899999290704727E-002	-6.612038705497980E-003
5.799999460577965E-002	-6.576634943485260E-003
5.699999257922173E-002	-6.541677750647068E-003
5.599999427795410E-002	-6.507162004709244E-003
5.499999225139618E-002	-6.473083514720201E-003
5.399999395012856E-002	-6.439437158405781E-003
5.299999192357063E-002	-6.406218279153109E-003
5.199999362230301E-002	-6.373421754688025E-003
5.099999159574509E-002	-6.341042462736368E-003
4.999999329447746E-002	-6.309075281023979E-003
4.899999499320984E-002	-6.277515552937984E-003
4.799999296665192E-002	-6.246357224881649E-003
4.699999466538429E-002	-6.215596105903387E-003
4.599999263882637E-002	-6.185226142406464E-003
4.499999433755875E-002	-6.155242212116718E-003
4.399999231100082E-002	-6.125639192759991E-003
4.299999400973320E-002	-6.096411496400833E-003
4.199999198317528E-002	-6.067554000765085E-003
4.099999368190765E-002	-6.039061583578587E-003
3.999999165534973E-002	-6.010928656905890E-003
3.899999335408211E-002	-5.983150098472834E-003
3.799999132752419E-002	-5.955720786005259E-003
3.699999302625656E-002	-5.928635597229004E-003
3.599999472498894E-002	-5.901888944208622E-003
3.499999269843102E-002	-5.875476170331240E-003
3.399999439716339E-002	-5.849391687661409E-003
3.299999237060547E-002	-5.823631305247545E-003
3.199999406933784E-002	-5.798188969492912E-003
3.099999390542507E-002	-5.773060023784637E-003
2.999999374151230E-002	-5.748240277171135E-003
2.899999357759953E-002	-5.723724141716957E-003
2.799999341368675E-002	-5.699506960809231E-003
2.699999324977398E-002	-5.675584077835083E-003
2.599999308586121E-002	-5.651950370520353E-003
2.499999292194843E-002	-5.628602113574743E-003
2.399999275803566E-002	-5.605533719062805E-003
2.299999259412289E-002	-5.582741461694241E-003
2.199999243021011E-002	-5.560220684856176E-003
2.099999226629734E-002	-5.537966731935740E-003
1.999999210238457E-002	-5.515975877642632E-003
1.899999193847179E-002	-5.494242999702692E-003
1.799999363720417E-002	-5.472764372825623E-003
1.699999347329140E-002	-5.451535806059837E-003
1.599999330937862E-002	-5.430553108453751E-003
1.499999314546585E-002	-5.409812554717064E-003
1.399999298155308E-002	-5.389309953898191E-003
1.299999281764030E-002	-5.369041580706835E-003
1.199999265372753E-002	-5.349003709852695E-003
1.099999248981476E-002	-5.329191684722900E-003
9.999992325901985E-003	-5.309603177011013E-003
8.999993093311787E-003	-5.290233530104160E-003
7.999992929399014E-003	-5.271079484373331E-003
6.999992765486240E-003	-5.252137314528227E-003
5.999992601573467E-003	-5.233403760939837E-003
4.999992437660694E-003	-5.214875563979149E-003
3.999992739409208E-003	-5.196549464017153E-003
2.999992575496435E-003	-5.178421735763550E-003
1.999992644414306E-003	-5.160489119589329E-003
9.999925969168544E-004	-5.142748821526766E-003
-7.450580596923828E-009	-5.125198047608137E-003
-1.000007498078048E-003	-5.107832606881857E-003
-2.000007545575500E-003	-5.090650636702776E-003
-3.000007476657629E-003	-5.073648411780596E-003
-4.000007640570402E-003	-5.056823603808880E-003
-5.000007338821888E-003	-5.040172953158617E-003
-6.000007502734661E-003	-5.023693665862083E-003
-7.000007666647434E-003	-5.007383413612843E-003
-8.000007830560207E-003	-4.991238936781883E-003
-9.000007994472981E-003	-4.975257907062769E-003
-1.000000722706318E-002	-4.959437996149063E-003
-1.100000739097595E-002	-4.943776410073042E-003
-1.200000755488873E-002	-4.928270354866982E-003
-1.300000771880150E-002	-4.912917967885733E-003
-1.400000788271427E-002	-4.897716455161572E-003
-1.500000804662704E-002	-4.882663488388062E-003
-1.600000821053982E-002	-4.867756273597479E-003
-1.700000837445259E-002	-4.852993879467249E-003
-1.800000853836536E-002	-4.838372580707073E-003
-1.900000683963299E-002	-4.823891445994377E-003
-2.000000700354576E-002	-4.809547215700150E-003
-2.100000716745853E-002	-4.795338492840528E-003
-2.200000733137131E-002	-4.781263414770365E-003
-2.300000749528408E-002	-4.767319187521935E-003
-2.400000765919685E-002	-4.753503948450089E-003
-2.500000782310963E-002	-4.739816300570965E-003
-2.600000798702240E-002	-4.726253915578127E-003
-2.700000815093517E-002	-4.712814930826426E-003
-2.800000831484795E-002	-4.699497949331999E-003
-2.900000847876072E-002	-4.686300177127123E-003
-3.000000864267349E-002	-4.673220682889223E-003
-3.100000880658627E-002	-4.660257603973150E-003
-3.200000897049904E-002	-4.647409077733755E-003
-3.300000727176666E-002	-4.634673707187176E-003
-3.400000929832459E-002	-4.622049164026976E-003
-3.500000759959221E-002	-4.609534516930580E-003
-3.600000962615013E-002	-4.597127437591553E-003
-3.700000792741776E-002	-4.584827460348606E-003
-3.800000622868538E-002	-4.572632256895304E-003
-3.900000825524330E-002	-4.560540430247784E-003
-4.000000655651093E-002	-4.548550583422184E-003
-4.100000858306885E-002	-4.536661319434643E-003
-4.200000688433647E-002	-4.524870775640011E-003
-4.300000891089439E-002	-4.513178486377001E-003
-4.400000721216202E-002	-4.501582589000463E-003
-4.500000923871994E-002	-4.490081220865250E-003
-4.600000753998756E-002	-4.478673916310072E-003
-4.700000956654549E-002	-4.467358812689781E-003
-4.800000786781311E-002	-4.456134978681803E-003
-4.900000989437103E-002	-4.445001017302275E-003
-5.000000819563866E-002	-4.433955531567335E-003
-5.100000649690628E-002	-4.422998055815697E-003
-5.200000852346420E-002	-4.412126261740923E-003
-5.300000682473183E-002	-4.401339683681726E-003
-5.400000885128975E-002	-4.390637390315533E-003
-5.500000715255737E-002	-4.380017518997192E-003
-5.600000917911530E-002	-4.369480069726706E-003
-5.700000748038292E-002	-4.359022714197636E-003
-5.800000950694084E-002	-4.348644986748695E-003
-5.900000780820847E-002	-4.338346421718597E-003
-6.000000983476639E-002	-4.328124690800905E-003
-6.100000813603401E-002	-4.317979793995619E-003
-6.200001016259193E-002	-4.307910799980164E-003
-6.300000846385956E-002	-4.297916311770678E-003
-6.400001049041748E-002	-4.287994932383299E-003
-6.500000506639481E-002	-4.278146661818028E-003
-6.600000709295273E-002	-4.268370103091002E-003
-6.700000911951065E-002	-4.258664790540934E-003
-6.800001114606857E-002	-4.249029327183962E-003
-6.900000572204590E-002	-4.239462781697512E-003
-7.000000774860382E-002	-4.229964688420296E-003
-7.100000977516174E-002	-4.220533650368452E-003
-7.200001180171967E-002	-4.211169667541981E-003
-7.300000637769699E-002	-4.201871342957020E-003
-7.400000840425491E-002	-4.192638210952282E-003
-7.500001043081284E-002	-4.183468874543905E-003
-7.600000500679016E-002	-4.174363333731890E-003
-7.700000703334808E-002	-4.165320191532373E-003
-7.800000905990601E-002	-4.156338982284069E-003
-7.900001108646393E-002	-4.147419240325689E-003
-8.000000566244125E-002	-4.138559568673372E-003
-8.100000768899918E-002	-4.129759967327118E-003
-8.200000971555710E-002	-4.121019504964352E-003
-8.300001174211502E-002	-4.112337250262499E-003
-8.400000631809235E-002	-4.103712737560272E-003
-8.500000834465027E-002	-4.095145035535097E-003
-8.600001037120819E-002	-4.086633678525686E-003
-8.700001239776611E-002	-4.078178200870752E-003
-8.800000697374344E-002	-4.069778136909008E-003
-8.900000900030136E-002	-4.061432089656591E-003
-9.000001102685928E-002	-4.053140059113503E-003
-9.100000560283661E-002	-4.044901113957167E-003
-9.200000762939453E-002	-4.036715254187584E-003
-9.300000965595245E-002	-4.028581082820892E-003
-9.400001168251038E-002	-4.020498134195805E-003
-9.500000625848770E-002	-4.012466873973608E-003
-9.600000828504562E-002	-4.004485439509153E-003
-9.700001031160355E-002	-3.996553830802441E-003
-9.800001233816147E-002	-3.988671582192183E-003
-9.900000691413879E-002	-3.980838228017092E-003
-1.000000089406967E-001	-3.973052836954594E-003
-1.010000109672546E-001	-3.965315409004688E-003
-1.020000055432320E-001	-3.957625012844801E-003
-1.030000075697899E-001	-3.949981648474932E-003
-1.040000095963478E-001	-3.942383918911219E-003
-1.050000116229057E-001	-3.934832289814949E-003
-1.060000061988831E-001	-3.927325829863548E-003
-1.070000082254410E-001	-3.919864073395729E-003
-1.080000102519989E-001	-3.912446554750204E-003
-1.090000122785568E-001	-3.905073041096330E-003
-1.100000068545341E-001	-3.897742833942175E-003
-1.110000088810921E-001	-3.890455700457096E-003
-1.120000109076500E-001	-3.883210942149162E-003
-1.130000054836273E-001	-3.876008326187730E-003
-1.140000075101852E-001	-3.868847386911511E-003
-1.150000095367432E-001	-3.861727658659220E-003
-1.160000115633011E-001	-3.854648675769567E-003
-1.170000061392784E-001	-3.847610205411911E-003
-1.180000081658363E-001	-3.840611781924963E-003
-1.190000101923943E-001	-3.833652939647436E-003
-1.200000122189522E-001	-3.826733445748687E-003
-1.210000067949295E-001	-3.819852601736784E-003
-1.220000088214874E-001	-3.813010407611728E-003
-1.230000108480453E-001	-3.806206164881587E-003
-1.240000128746033E-001	-3.799439873546362E-003
-1.250000149011612E-001	-3.792710835114121E-003
-1.260000020265579E-001	-3.786018816754222E-003
-1.270000040531158E-001	-3.779363352805376E-003
-1.280000060796738E-001	-3.772744210436940E-003
-1.290000081062317E-001	-3.766161156818271E-003
-1.300000101327896E-001	-3.759613726288080E-003
-1.310000121593475E-001	-3.753101453185081E-003
-1.320000141859055E-001	-3.746624337509274E-003
-1.330000162124634E-001	-3.740181680768728E-003
-1.340000033378601E-001	-3.733773482963443E-003
-1.350000053644180E-001	-3.727399278432131E-003
-1.360000073909760E-001	-3.721058834344149E-003
-1.370000094175339E-001	-3.714751685038209E-003
-1.380000114440918E-001	-3.708477597683668E-003
-1.390000134706497E-001	-3.702236339449883E-003
-1.400000154972076E-001	-3.696027444675565E-003
-1.410000026226044E-001	-3.689850913360715E-003
-1.420000046491623E-001	-3.683706047013402E-003
-1.430000066757202E-001	-3.677593078464270E-003
-1.440000087022781E-001	-3.671511309221387E-003
-1.450000107288361E-001	-3.665460739284754E-003
-1.460000127553940E-001	-3.659440670162439E-003
-1.470000147819519E-001	-3.653451334685087E-003
-1.480000168085098E-001	-3.647492267191410E-003
-1.490000039339066E-001	-3.641563234850764E-003
-1.500000059604645E-001	-3.635663772001863E-003
-1.510000079870224E-001	-3.629793878644705E-003
-1.520000100135803E-001	-3.623953089118004E-003
-1.530000120401382E-001	-3.618141403421760E-003
-1.540000140666962E-001	-3.612358355894685E-003
-1.550000160932541E-001	-3.606603713706136E-003
-1.560000032186508E-001	-3.600877476856112E-003
-1.570000052452087E-001	-3.595179179683328E-003
-1.580000072717667E-001	-3.589508589357138E-003
-1.590000092983246E-001	-3.583865473046899E-003
-1.600000113248825E-001	-3.578249830752611E-003
-1.610000133514404E-001	-3.572661196812987E-003
-1.620000153779984E-001	-3.567099338397384E-003
-1.630000025033951E-001	-3.561564255505800E-003
-1.640000045299530E-001	-3.556055482476950E-003
-1.650000065565109E-001	-3.550572786480188E-003
-1.660000085830688E-001	-3.545116167515516E-003
-1.670000106096268E-001	-3.539685392752290E-003
-1.680000126361847E-001	-3.534279996529222E-003
-1.690000146627426E-001	-3.528900211676955E-003
-1.700000166893005E-001	-3.523545339703560E-003
-1.710000038146973E-001	-3.518215380609035E-003
-1.720000058412552E-001	-3.512910334393382E-003
-1.730000078678131E-001	-3.507629735395312E-003
-1.740000098943710E-001	-3.502373583614826E-003
-1.750000119209290E-001	-3.497141646221280E-003
-1.760000139474869E-001	-3.491933457553387E-003
-1.770000159740448E-001	-3.486749250441790E-003
-1.780000030994415E-001	-3.481588559225202E-003
-1.790000051259995E-001	-3.476451151072979E-003
-1.800000071525574E-001	-3.471337258815765E-003
-1.810000091791153E-001	-3.466246183961630E-003
-1.820000112056732E-001	-3.461178159341216E-003
-1.830000132322311E-001	-3.456132719293237E-003
-1.840000152587891E-001	-3.451109630987048E-003
-1.850000172853470E-001	-3.446109127253294E-003
-1.860000044107437E-001	-3.441130742430687E-003
-1.870000064373016E-001	-3.436174476519227E-003
-1.880000084638596E-001	-3.431240096688271E-003
-1.890000104904175E-001	-3.426327137276530E-003
-1.900000125169754E-001	-3.421435831114650E-003
-1.910000145435333E-001	-3.416565945371985E-003
-1.920000165700912E-001	-3.411717247217894E-003
-1.930000036954880E-001	-3.406889503821731E-003
-1.940000057220459E-001	-3.402082715183496E-003
-1.950000077486038E-001	-3.397296648472548E-003
-1.960000097751617E-001	-3.392531070858240E-003
-1.970000118017197E-001	-3.387785982340574E-003
-1.980000138282776E-001	-3.383061382919550E-003
-1.990000158548355E-001	-3.378356574103236E-003
-2.000000178813934E-001	-3.373672021552920E-003
-2.010000050067902E-001	-3.369007026776671E-003
-2.020000070333481E-001	-3.364362055435777E-003
-2.030000090599060E-001	-3.359736409038305E-003
-2.040000110864639E-001	-3.355130320414901E-003
-2.050000131130219E-001	-3.350543323904276E-003
-2.060000151395798E-001	-3.345975652337074E-003
-2.070000171661377E-001	-3.341426840052009E-003
-2.080000042915344E-001	-3.336897119879723E-003
-2.090000063180923E-001	-3.332386026158929E-003
-2.100000083446503E-001	-3.327893326058984E-003
-2.110000103712082E-001	-3.323419485241175E-003
-2.120000123977661E-001	-3.318963572382927E-003
-2.130000144243240E-001	-3.314526285976171E-003
-2.140000164508820E-001	-3.310106694698334E-003
-2.150000035762787E-001	-3.305705264210701E-003
-2.160000056028366E-001	-3.301321761682630E-003
-2.170000076293945E-001	-3.296955954283476E-003
-2.180000096559525E-001	-3.292607609182596E-003
-2.190000116825104E-001	-3.288276959210634E-003
-2.200000137090683E-001	-3.283963305875659E-003
-2.210000157356262E-001	-3.279667114838958E-003
-2.220000177621841E-001	-3.275388153269887E-003
-2.230000048875809E-001	-3.271125955507159E-003
-2.240000069141388E-001	-3.266880754381418E-003
-2.250000089406967E-001	-3.262652549892664E-003
-2.260000109672546E-001	-3.258440643548965E-003
-2.270000129938126E-001	-3.254245501011610E-003
-2.280000150203705E-001	-3.250066656619310E-003
-2.290000170469284E-001	-3.245904343202710E-003
-2.300000041723251E-001	-3.241758095100522E-003
-2.310000061988831E-001	-3.237628145143390E-003
-2.320000082254410E-001	-3.233514027670026E-003
-2.330000102519989E-001	-3.229415975511074E-003
-2.340000122785568E-001	-3.225333523005247E-003
-2.350000143051147E-001	-3.221266902983189E-003
-2.360000163316727E-001	-3.217215882614255E-003
-2.370000183582306E-001	-3.213180229067802E-003
-2.380000054836273E-001	-3.209160175174475E-003
-2.390000075101852E-001	-3.205155255272985E-003
-2.400000095367432E-001	-3.201165469363332E-003
-2.410000115633011E-001	-3.197191050276160E-003
-2.420000135898590E-001	-3.193231299519539E-003
-2.430000156164169E-001	-3.189286682754755E-003
-2.440000176429749E-001	-3.185356967151165E-003
-2.450000047683716E-001	-3.181441687047482E-003
-2.460000067949295E-001	-3.177541308104992E-003
-2.470000088214874E-001	-3.173655131831765E-003
-2.480000108480453E-001	-3.169783623889089E-003
-2.490000128746033E-001	-3.165926551446319E-003
-2.500000000000000E-001	-3.162083448842168E-003
-2.510000169277191E-001	-3.158254781737924E-003
-2.520000040531158E-001	-3.154440084472299E-003
-2.530000209808350E-001	-3.150639357045293E-003
-2.540000081062317E-001	-3.146852599456906E-003
-2.550000250339508E-001	-3.143079578876495E-003
-2.560000121593475E-001	-3.139320528134704E-003
-2.569999992847443E-001	-3.135574981570244E-003
-2.580000162124634E-001	-3.131842939183116E-003
-2.590000033378601E-001	-3.128124400973320E-003
-2.600000202655792E-001	-3.124419134110212E-003
-2.610000073909760E-001	-3.120727371424437E-003
-2.620000243186951E-001	-3.117048880085349E-003
-2.630000114440918E-001	-3.113383427262306E-003
-2.639999985694885E-001	-3.109731245785952E-003
-2.650000154972076E-001	-3.106091869994998E-003
-2.660000026226044E-001	-3.102465532720089E-003
-2.670000195503235E-001	-3.098852001130581E-003
-2.680000066757202E-001	-3.095251042395830E-003
-2.690000236034393E-001	-3.091663122177124E-003
-2.700000107288361E-001	-3.088087541982532E-003
-2.709999978542328E-001	-3.084524534642696E-003
-2.720000147819519E-001	-3.080974100157619E-003
-2.730000019073486E-001	-3.077436005696654E-003
-2.740000188350677E-001	-3.073910251259804E-003
-2.750000059604645E-001	-3.070396836847067E-003
-2.760000228881836E-001	-3.066895529627800E-003
-2.770000100135803E-001	-3.063406329602003E-003
-2.779999971389771E-001	-3.059929003939033E-003
-2.790000140666962E-001	-3.056463785469532E-003
-2.800000011920929E-001	-3.053010674193501E-003
-2.810000181198120E-001	-3.049568971619010E-003
-2.820000052452087E-001	-3.046139376237988E-003
-2.830000221729279E-001	-3.042721189558506E-003
-2.840000092983246E-001	-3.039314877241850E-003
-2.850000262260437E-001	-3.035919973626733E-003
-2.860000133514404E-001	-3.032536711543798E-003
-2.870000004768372E-001	-3.029164625331759E-003
-2.880000174045563E-001	-3.025804180651903E-003
-2.890000045299530E-001	-3.022454679012299E-003
-2.900000214576721E-001	-3.019116818904877E-003
-2.910000085830688E-001	-3.015789901837707E-003
-2.920000255107880E-001	-3.012473927810788E-003
-2.930000126361847E-001	-3.009169362485409E-003
-2.939999997615814E-001	-3.005875507369637E-003
-2.950000166893005E-001	-3.002592595294118E-003
-2.960000038146973E-001	-2.999320626258850E-003
-2.970000207424164E-001	-2.996059367433190E-003
-2.980000078678131E-001	-2.992809051647782E-003
-2.990000247955322E-001	-2.989569213241339E-003
-3.000000119209290E-001	-2.986340085044503E-003
-2.990000247955322E-001	-2.983121434226632E-003
-2.980000078678131E-001	-2.979913260787725E-003
-2.970000207424164E-001	-2.976715564727783E-003
-2.960000038146973E-001	-2.973528113216162E-003
-2.950000166893005E-001	-2.970351371914148E-003
-2.939999997615814E-001	-2.967184642329812E-003
-2.930000126361847E-001	-2.964028157293797E-003
-2.920000255107880E-001	-2.960881916806102E-003
-2.910000085830688E-001	-2.957745688036084E-003
-2.900000214576721E-001	-2.954619470983744E-003
-2.890000045299530E-001	-2.951503265649080E-003
-2.880000174045563E-001	-2.948397072032094E-003
-2.870000004768372E-001	-2.945300890132785E-003
-2.860000133514404E-001	-2.942214254289865E-003
-2.850000262260437E-001	-2.939137630164623E-003
-2.840000092983246E-001	-2.936070784926414E-003
-2.830000221729279E-001	-2.933013485744596E-003
-2.820000052452087E-001	-2.929965732619166E-003
-2.810000181198120E-001	-2.926927758380771E-003
-2.800000011920929E-001	-2.923899097368121E-003
-2.790000140666962E-001	-2.920880215242505E-003
-2.779999971389771E-001	-2.917870646342635E-003
-2.770000100135803E-001	-2.914870390668511E-003
-2.760000228881836E-001	-2.911879448220134E-003
-2.750000059604645E-001	-2.908897818997502E-003
-2.740000188350677E-001	-2.905925270169973E-003
-2.730000019073486E-001	-2.902962034568191E-003
-2.720000147819519E-001	-2.900008112192154E-003
-2.709999978542328E-001	-2.897063037380576E-003
-2.700000107288361E-001	-2.894127042964101E-003
-2.690000236034393E-001	-2.891200128942728E-003
-2.680000066757202E-001	-2.888282062485814E-003
-2.670000195503235E-001	-2.885372843593359E-003
-2.660000026226044E-001	-2.882472705096006E-003
-2.650000154972076E-001	-2.879581181332469E-003
-2.639999985694885E-001	-2.876698505133390E-003
-2.630000114440918E-001	-2.873824676498771E-003
-2.620000243186951E-001	-2.870959229767323E-003
-2.610000073909760E-001	-2.868102630600333E-003
-2.600000202655792E-001	-2.865254646167159E-003
-2.590000033378601E-001	-2.862415043637156E-003
-2.580000162124634E-001	-2.859584055840969E-003
-2.569999992847443E-001	-2.856761449947953E-003
-2.560000121593475E-001	-2.853947458788753E-003
-2.550000250339508E-001	-2.851141616702080E-003
-2.540000081062317E-001	-2.848344156518579E-003
-2.530000209808350E-001	-2.845555078238249E-003
-2.520000040531158E-001	-2.842774149030447E-003
-2.510000169277191E-001	-2.840001601725817E-003
-2.500000000000000E-001	-2.837236970663071E-003
-2.490000128746033E-001	-2.834480488672853E-003
-2.480000108480453E-001	-2.831732388585806E-003
-2.470000088214874E-001	-2.828991971910000E-003
-2.460000067949295E-001	-2.826259704306722E-003
-2.450000047683716E-001	-2.823535585775971E-003
-2.440000176429749E-001	-2.820819150656462E-003
-2.430000156164169E-001	-2.818110631778836E-003
-2.420000135898590E-001	-2.815410029143095E-003
-2.410000115633011E-001	-2.812717342749238E-003
-2.400000095367432E-001	-2.810032339766622E-003
-2.390000075101852E-001	-2.807355020195246E-003
-2.380000054836273E-001	-2.804685384035110E-003
-2.370000183582306E-001	-2.802023431286216E-003
-2.360000163316727E-001	-2.799369161948562E-003
-2.350000143051147E-001	-2.796722343191504E-003
-2.340000122785568E-001	-2.794083207845688E-003
-2.330000102519989E-001	-2.791451523080468E-003
-2.320000082254410E-001	-2.788827521726489E-003
-2.310000061988831E-001	-2.786210738122463E-003
-2.300000041723251E-001	-2.783601405099034E-003
-2.290000170469284E-001	-2.780999522656202E-003
-2.280000150203705E-001	-2.778404857963324E-003
-2.270000129938126E-001	-2.775817411020398E-003
-2.260000109672546E-001	-2.773237414658070E-003
-2.250000089406967E-001	-2.770664636045694E-003
-2.240000069141388E-001	-2.768099075183272E-003
-2.230000048875809E-001	-2.765540499240160E-003
-2.220000177621841E-001	-2.762989141047001E-003
-2.210000157356262E-001	-2.760445000603795E-003
-2.200000137090683E-001	-2.757907845079899E-003
-2.190000116825104E-001	-2.755377674475312E-003
-2.180000096559525E-001	-2.752854488790035E-003
-2.170000076293945E-001	-2.750338288024068E-003
-2.160000056028366E-001	-2.747829072177410E-003
-2.150000035762787E-001	-2.745326608419418E-003
-2.140000164508820E-001	-2.742831129580736E-003
-2.130000144243240E-001	-2.740342635661364E-003
-2.120000123977661E-001	-2.737860661000013E-003
-2.110000103712082E-001	-2.735385671257973E-003
-2.100000083446503E-001	-2.732917200773954E-003
-2.090000063180923E-001	-2.730455715209246E-003
-2.080000042915344E-001	-2.728000748902559E-003
-2.070000171661377E-001	-2.725552301853895E-003
-2.060000151395798E-001	-2.723110606893897E-003
-2.050000131130219E-001	-2.720675431191921E-003
-2.040000110864639E-001	-2.718247007578611E-003
-2.030000090599060E-001	-2.715824870392680E-003
-2.020000070333481E-001	-2.713409252464771E-003
-2.010000050067902E-001	-2.711000153794885E-003
-2.000000178813934E-001	-2.708597574383020E-003
-1.990000158548355E-001	-2.706201281398535E-003
-1.980000138282776E-001	-2.703811274841428E-003
-1.970000118017197E-001	-2.701427787542343E-003
-1.960000097751617E-001	-2.699050586670637E-003
-1.950000077486038E-001	-2.696679672226310E-003
-1.940000057220459E-001	-2.694314811378717E-003
-1.930000036954880E-001	-2.691956469789147E-003
-1.920000165700912E-001	-2.689604181796312E-003
-1.910000145435333E-001	-2.687258180230856E-003
-1.900000125169754E-001	-2.684917999431491E-003
-1.890000104904175E-001	-2.682584337890148E-003
-1.880000084638596E-001	-2.680256497114897E-003
-1.870000064373016E-001	-2.677934709936380E-003
-1.860000044107437E-001	-2.675619209185243E-003
-1.850000172853470E-001	-2.673309529200196E-003
-1.840000152587891E-001	-2.671005669981241E-003
-1.830000132322311E-001	-2.668708097189665E-003
-1.820000112056732E-001	-2.666416112333536E-003
-1.810000091791153E-001	-2.664130181074142E-003
-1.800000071525574E-001	-2.661850303411484E-003
-1.790000051259995E-001	-2.659576013684273E-003
-1.780000030994415E-001	-2.657307544723153E-003
-1.770000159740448E-001	-2.655044896528125E-003
-1.760000139474869E-001	-2.652788069099188E-003
-1.750000119209290E-001	-2.650536829605699E-003
-1.740000098943710E-001	-2.648291410878301E-003
-1.730000078678131E-001	-2.646051580086350E-003
-1.720000058412552E-001	-2.643817570060492E-003
-1.710000038146973E-001	-2.641588915139437E-003
-1.700000166893005E-001	-2.639366080984473E-003
-1.690000146627426E-001	-2.637148834764957E-003
-1.680000126361847E-001	-2.634936943650246E-003
-1.670000106096268E-001	-2.632730640470982E-003
-1.660000085830688E-001	-2.630529925227165E-003
-1.650000065565109E-001	-2.628334565088153E-003
-1.640000045299530E-001	-2.626144792884588E-003
-1.630000025033951E-001	-2.623960375785828E-003
-1.620000153779984E-001	-2.621781313791871E-003
-1.610000133514404E-001	-2.619607606902719E-003
-1.600000113248825E-001	-2.617439255118370E-003
-1.590000092983246E-001	-2.615276258438826E-003
-1.580000072717667E-001	-2.613118384033442E-003
-1.570000052452087E-001	-2.610965864732862E-003
-1.560000032186508E-001	-2.608818467706442E-003
-1.550000160932541E-001	-2.606676425784826E-003
-1.540000140666962E-001	-2.604539506137371E-003
-1.530000120401382E-001	-2.602407708764076E-003
-1.520000100135803E-001	-2.600281266495585E-003
-1.510000079870224E-001	-2.598159713670611E-003
-1.500000059604645E-001	-2.596043283119798E-003
-1.490000039339066E-001	-2.593931742012501E-003
-1.480000168085098E-001	-2.591825556010008E-003
-1.470000147819519E-001	-2.589724026620388E-003
-1.460000127553940E-001	-2.587627619504929E-003
-1.450000107288361E-001	-2.585536101832986E-003
-1.440000087022781E-001	-2.583449706435204E-003
-1.430000066757202E-001	-2.581367967650294E-003
-1.420000046491623E-001	-2.579291118308902E-003
-1.410000026226044E-001	-2.577219158411026E-003
-1.400000154972076E-001	-2.575151855126023E-003
-1.390000134706497E-001	-2.573089674115181E-003
-1.380000114440918E-001	-2.571031916886568E-003
-1.370000094175339E-001	-2.568979049101472E-003
-1.360000073909760E-001	-2.566930837929249E-003
-1.350000053644180E-001	-2.564887283369899E-003
-1.340000033378601E-001	-2.562848385423422E-003
-1.330000162124634E-001	-2.560813911259174E-003
-1.320000141859055E-001	-2.558784326538444E-003
-1.310000121593475E-001	-2.556759165599942E-003
-1.300000101327896E-001	-2.554738428443670E-003
-1.290000081062317E-001	-2.552722115069628E-003
-1.280000060796738E-001	-2.550710458308458E-003
-1.270000040531158E-001	-2.548703225329518E-003
-1.260000020265579E-001	-2.546700416132808E-003
-1.250000149011612E-001	-2.544701797887683E-003
-1.240000128746033E-001	-2.542707603424788E-003
-1.230000108480453E-001	-2.540717832744122E-003
-1.220000088214874E-001	-2.538732253015041E-003
-1.210000067949295E-001	-2.536750864237547E-003
-1.200000122189522E-001	-2.534773666411638E-003
-1.190000101923943E-001	-2.532800659537315E-003
-1.180000081658363E-001	-2.530831843614578E-003
-1.170000061392784E-001	-2.528866985812783E-003
-1.160000115633011E-001	-2.526906318962574E-003
-1.150000095367432E-001	-2.524949610233307E-003
-1.140000075101852E-001	-2.522996859624982E-003
-1.130000054836273E-001	-2.521048299968243E-003
-1.120000109076500E-001	-2.519103465601802E-003
-1.110000088810921E-001	-2.517162589356303E-003
-1.100000068545341E-001	-2.515225438401103E-003
-1.090000122785568E-001	-2.513292012736201E-003
-1.080000102519989E-001	-2.511362545192242E-003
-1.070000082254410E-001	-2.509436570107937E-003
-1.060000061988831E-001	-2.507514553144574E-003
-1.050000116229057E-001	-2.505596028640866E-003
-1.040000095963478E-001	-2.503680996596813E-003
-1.030000075697899E-001	-2.501769457012415E-003
-1.020000055432320E-001	-2.499861642718315E-003
-1.010000109672546E-001	-2.497957088053226E-003
-1.000000089406967E-001	-2.496055793017149E-003
-9.900000691413879E-002	-2.494157990440726E-003
-9.800001233816147E-002	-2.492263447493315E-003
-9.700001031160355E-002	-2.490372164174914E-003
-9.600000828504562E-002	-2.488484140485525E-003
-9.500000625848770E-002	-2.486599143594503E-003
-9.400001168251038E-002	-2.484717173501849E-003
-9.300000965595245E-002	-2.482838230207562E-003
-9.200000762939453E-002	-2.480962080881000E-003
-9.100000560283661E-002	-2.479088958352804E-003
-9.000001102685928E-002	-2.477218629792333E-003
-8.900000900030136E-002	-2.475351095199585E-003
-8.800000697374344E-002	-2.473486121743917E-003
-8.700001239776611E-002	-2.471623709425330E-003
-8.600001037120819E-002	-2.469763858243823E-003
-8.500000834465027E-002	-2.467906568199396E-003
-8.400000631809235E-002	-2.466051606461406E-003
-8.300001174211502E-002	-2.464198740199208E-003
-8.200000971555710E-002	-2.462348435074091E-003
-8.100000768899918E-002	-2.460499992594123E-003
-8.000000566244125E-002	-2.458653645589948E-003
-7.900001108646393E-002	-2.456809394061565E-003
-7.800000905990601E-002	-2.454966772347689E-003
-7.700000703334808E-002	-2.453126013278961E-003
-7.600000500679016E-002	-2.451286884024739E-003
-7.500001043081284E-002	-2.449449384585023E-003
-7.400000840425491E-002	-2.447613282129169E-003
-7.300000637769699E-002	-2.445778343826532E-003
-7.200001180171967E-002	-2.443944802507758E-003
-7.100000977516174E-002	-2.442112425342202E-003
-7.000000774860382E-002	-2.440280979499221E-003
-6.900000572204590E-002	-2.438450232148170E-003
-6.800001114606857E-002	-2.436620416119695E-003
-6.700000911951065E-002	-2.434791065752506E-003
-6.600000709295273E-002	-2.432962181046605E-003
-6.500000506639481E-002	-2.431133762001991E-003
-6.400001049041748E-002	-2.429305342957377E-003
-6.300000846385956E-002	-2.427476923912764E-003
-6.200001016259193E-002	-2.425648272037506E-003
-6.100000813603401E-002	-2.423819387331605E-003
-6.000000983476639E-002	-2.421990036964417E-003
-5.900000780820847E-002	-2.420159988105297E-003
-5.800000950694084E-002	-2.418329007923603E-003
-5.700000748038292E-002	-2.416497096419334E-003
-5.600000917911530E-002	-2.414663787931204E-003
-5.500000715255737E-002	-2.412829082459211E-003
-5.400000885128975E-002	-2.410992514342070E-003
-5.300000682473183E-002	-2.409154316410422E-003
-5.200000852346420E-002	-2.407313790172338E-003
-5.100000649690628E-002	-2.405470935627818E-003
-5.000000819563866E-002	-2.403625519946218E-003
-4.900000989437103E-002	-2.401777310296893E-003
-4.800000786781311E-002	-2.399925841018558E-003
-4.700000956654549E-002	-2.398070879280567E-003
-4.600000753998756E-002	-2.396212425082922E-003
-4.500000923871994E-002	-2.394349779933691E-003
-4.400000721216202E-002	-2.392482943832874E-003
-4.300000891089439E-002	-2.390611451119184E-003
-4.200000688433647E-002	-2.388734836131334E-003
-4.100000858306885E-002	-2.386853098869324E-003
-4.000000655651093E-002	-2.384965540841222E-003
-3.900000825524330E-002	-2.383071929216385E-003
-3.800000622868538E-002	-2.381172031164169E-003
-3.700000792741776E-002	-2.379265148192644E-003
-3.600000962615013E-002	-2.377351280301809E-003
-3.500000759959221E-002	-2.375429496169090E-003
-3.400000929832459E-002	-2.373499562963843E-003
-3.300000727176666E-002	-2.371561015024781E-003
-3.200000897049904E-002	-2.369613386690617E-003
-3.100000880658627E-002	-2.367656212300062E-003
-3.000000864267349E-002	-2.365689026191831E-003
-2.900000847876072E-002	-2.363711129873991E-003
-2.800000831484795E-002	-2.361722057685256E-003
-2.700000815093517E-002	-2.359721111133695E-003
-2.600000798702240E-002	-2.357707591727376E-003
-2.500000782310963E-002	-2.355681266635656E-003
-2.400000765919685E-002	-2.353641204535961E-003
-2.300000749528408E-002	-2.351586706936359E-003
-2.200000733137131E-002	-2.349517075344920E-003
-2.100000716745853E-002	-2.347431611269712E-003
-2.000000700354576E-002	-2.345329616218805E-003
-1.900000683963299E-002	-2.343210158869624E-003
-1.800000853836536E-002	-2.341072540730238E-003
-1.700000837445259E-002	-2.338915830478072E-003
-1.600000821053982E-002	-2.336739329621196E-003
-1.500000804662704E-002	-2.334541641175747E-003
-1.400000788271427E-002	-2.332322299480438E-003
-1.300000771880150E-002	-2.330080140382051E-003
-1.200000755488873E-002	-2.327813999727368E-003
-1.100000739097595E-002	-2.325522946193814E-003
-1.000000722706318E-002	-2.323206048458815E-003
-9.000007994472981E-003	-2.320861676707864E-003
-8.000007830560207E-003	-2.318488899618387E-003
-7.000007666647434E-003	-2.316086320206523E-003
-6.000007502734661E-003	-2.313653007149696E-003
-5.000007338821888E-003	-2.311187097802758E-003
-4.000007640570402E-003	-2.308687428012490E-003
-3.000007476657629E-003	-2.306152600795031E-003
-2.000007545575500E-003	-2.303581219166517E-003
-1.000007498078048E-003	-2.300971187651157E-003
-7.450580596923828E-009	-2.298321574926376E-003
9.999925969168544E-004	-2.295630052685738E-003
1.999992644414306E-003	-2.292895223945379E-003
2.999992575496435E-003	-2.290114993229508E-003
3.999992739409208E-003	-2.287287730723619E-003
4.999992437660694E-003	-2.284411108121276E-003
5.999992601573467E-003	-2.281483495607972E-003
6.999992765486240E-003	-2.278502564877272E-003
7.999992929399014E-003	-2.275465987622738E-003
8.999993093311787E-003	-2.272371435537934E-003
9.999992325901985E-003	-2.269216580316424E-003
1.099999248981476E-002	-2.265999093651772E-003
1.199999265372753E-002	-2.262716414406896E-003
1.299999281764030E-002	-2.259365515783429E-003
1.399999298155308E-002	-2.255943836644292E-003
1.499999314546585E-002	-2.252448350191116E-003
1.599999330937862E-002	-2.248876262456179E-003
1.699999347329140E-002	-2.245224313810468E-003
1.799999363720417E-002	-2.241489244624972E-003
1.899999193847179E-002	-2.237667562440038E-003
1.999999210238457E-002	-2.233756007626653E-003
2.099999226629734E-002	-2.229751087725163E-003
2.199999243021011E-002	-2.225648611783981E-003
2.299999259412289E-002	-2.221444854512811E-003
2.399999275803566E-002	-2.217135857790709E-003
2.499999292194843E-002	-2.212717197835445E-003
2.599999308586121E-002	-2.208184683695436E-003
2.699999324977398E-002	-2.203533658757806E-003
2.799999341368675E-002	-2.198759466409683E-003
2.899999357759953E-002	-2.193857217207551E-003
2.999999374151230E-002	-2.188821788877249E-003
3.099999390542507E-002	-2.183647826313972E-003
3.199999406933784E-002	-2.178329974412918E-003
3.299999237060547E-002	-2.172862412407994E-003
3.399999439716339E-002	-2.167239552363753E-003
3.499999269843102E-002	-2.161455107852817E-003
3.599999472498894E-002	-2.155502559617162E-003
3.699999302625656E-002	-2.149375621229410E-003
3.799999132752419E-002	-2.143067307770252E-003
3.899999335408211E-002	-2.136570634320378E-003
3.999999165534973E-002	-2.129878150299191E-003
4.099999368190765E-002	-2.122982172295451E-003
4.199999198317528E-002	-2.115875249728560E-003
4.299999400973320E-002	-2.108548767864704E-003
4.399999231100082E-002	-2.100994577631354E-003
4.499999433755875E-002	-2.093203598633409E-003
4.599999263882637E-002	-2.085166983306408E-003
4.699999466538429E-002	-2.076875185593963E-003
4.799999296665192E-002	-2.068318426609039E-003
4.899999499320984E-002	-2.059486461803317E-003
4.999999329447746E-002	-2.050369279459119E-003
5.099999159574509E-002	-2.040955470874906E-003
5.199999362230301E-002	-2.031234325841069E-003
5.299999192357063E-002	-2.021193737164140E-003
5.399999395012856E-002	-2.010822063311934E-003
5.499999225139618E-002	-2.000106498599052E-003
5.599999427795410E-002	-1.989034703001380E-003
5.699999257922173E-002	-1.977592706680298E-003
5.799999460577965E-002	-1.965767238289118E-003
5.899999290704727E-002	-1.953543629497290E-003
5.999999493360519E-002	-1.940907561220229E-003
6.099999323487282E-002	-1.927843550220132E-003
6.199999526143074E-002	-1.914336113259196E-003
6.299999356269836E-002	-1.900368719361722E-003
6.399999558925629E-002	-1.885924837552011E-003
6.499999016523361E-002	-1.870987005531788E-003
6.599999219179153E-002	-1.855537528172135E-003
6.699999421834946E-002	-1.839557779021561E-003
6.799999624490738E-002	-1.823028782382607E-003
6.899999082088470E-002	-1.805931096896529E-003
6.999999284744263E-002	-1.788244466297328E-003
7.099999487400055E-002	-1.769947935827076E-003
7.199999690055847E-002	-1.751020201481879E-003
7.299999147653580E-002	-1.731439144350588E-003
7.399999350309372E-002	-1.711182063445449E-003
7.499999552965164E-002	-1.690225675702095E-003
7.599999010562897E-002	-1.668545883148909E-003
7.699999213218689E-002	-1.646118122152984E-003
7.799999415874481E-002	-1.622916897758842E-003
7.899999618530273E-002	-1.598916249349713E-003
7.999999076128006E-002	-1.574089634232223E-003
8.099999278783798E-002	-1.548409461975098E-003
8.199999481439590E-002	-1.521847792901099E-003
8.299999684095383E-002	-1.494375988841057E-003
8.399999141693115E-002	-1.465964596718550E-003
8.499999344348907E-002	-1.436583581380546E-003
8.599999547004700E-002	-1.406202209182084E-003
8.699999749660492E-002	-1.374789164401591E-003
8.799999207258224E-002	-1.342312432825565E-003
8.899999409914017E-002	-1.308739418163896E-003
8.999999612569809E-002	-1.274037058465183E-003
9.099999070167542E-002	-1.238171476870775E-003
9.199999272823334E-002	-1.201108447276056E-003
9.299999475479126E-002	-1.162813161499798E-003
9.399999678134918E-002	-1.123250229284167E-003
9.499999135732651E-002	-1.082383911125362E-003
9.599999338388443E-002	-1.040178234688938E-003
9.699999541044235E-002	-9.965965291485190E-004
9.799999743700027E-002	-9.516020654700696E-004
9.899999201297760E-002	-9.051578817889094E-004
9.999999403953552E-002	-8.572267834097147E-004
1.009999960660934E-001	-8.077714010141790E-004
1.019999906420708E-001	-7.567544234916568E-004
1.029999926686287E-001	-7.041387143544853E-004
1.039999946951866E-001	-6.498869624920189E-004
1.049999967217445E-001	-5.939624970778823E-004
1.059999912977219E-001	-5.363286472856998E-004
1.069999933242798E-001	-4.769493825733662E-004
1.079999953508377E-001	-4.157892544753850E-004
1.089999973773956E-001	-3.528135130181909E-004
1.099999919533730E-001	-2.879881649278104E-004
1.109999939799309E-001	-2.212802937719971E-004
1.119999960064888E-001	-1.526580890640616E-004
1.129999905824661E-001	-8.209104998968542E-005
1.139999926090240E-001	-9.550097274768632E-006
1.149999946355820E-001	6.499216397060081E-005
1.159999966621399E-001	1.415613369317725E-004
1.169999912381172E-001	2.201810129918158E-004
1.179999932646751E-001	3.008725470863283E-004
1.189999952912331E-001	3.836549003608525E-004
1.199999973177910E-001	4.685444582719356E-004
1.209999918937683E-001	5.555546958930790E-004
1.219999939203262E-001	6.446960614994168E-004
1.229999959468842E-001	7.359758019447327E-004
1.239999979734421E-001	8.293974096886814E-004
1.249999925494194E-001	9.249610011465847E-004
1.259999871253967E-001	1.022662385366857E-003
1.269999891519547E-001	1.122493296861649E-003
1.279999911785126E-001	1.224441220983863E-003
1.289999932050705E-001	1.328488695435226E-003
1.299999952316284E-001	1.434613484889269E-003
1.309999972581863E-001	1.542788231745362E-003
1.319999992847443E-001	1.652980572544038E-003
1.330000013113022E-001	1.765152206644416E-003
1.339999884366989E-001	1.879259361885488E-003
1.349999904632568E-001	1.995252445340157E-003
1.359999924898148E-001	2.113075926899910E-003
1.369999945163727E-001	2.232667990028858E-003
1.379999965429306E-001	2.353960648179054E-003
1.389999985694885E-001	2.476879395544529E-003
1.400000005960464E-001	2.601343439891934E-003
1.409999877214432E-001	2.727265935391188E-003
1.419999897480011E-001	2.854552818462253E-003
1.429999917745590E-001	2.983104437589645E-003
1.439999938011169E-001	3.112813923507929E-003
1.449999958276749E-001	3.243568819016218E-003
1.459999978542328E-001	3.375250147655606E-003
1.469999998807907E-001	3.507732879370451E-003
1.480000019073486E-001	3.640886396169662E-003
1.489999890327454E-001	3.774574724957347E-003
1.499999910593033E-001	3.908656071871519E-003
1.509999930858612E-001	4.042983986437321E-003
1.519999951124191E-001	4.177407361567020E-003
1.529999971389771E-001	4.311771597713232E-003
1.539999991655350E-001	4.445916507393122E-003
1.550000011920929E-001	4.579680971801281E-003
1.559999883174896E-001	4.712899215519428E-003
1.569999903440475E-001	4.845404531806707E-003
1.579999923706055E-001	4.977026954293251E-003
1.589999943971634E-001	5.107597447931767E-003
1.599999964237213E-001	5.236944183707237E-003
1.609999984502792E-001	5.364898126572371E-003
1.620000004768372E-001	5.491288378834724E-003
1.629999876022339E-001	5.615946836769581E-003
1.639999896287918E-001	5.738707259297371E-003
1.649999916553497E-001	5.859406664967537E-003
1.659999936819077E-001	5.977884866297245E-003
1.669999957084656E-001	6.093984935432673E-003
1.679999977350235E-001	6.207555998116732E-003
1.689999997615814E-001	6.318451371043921E-003
1.700000017881393E-001	6.426530890166759E-003
1.709999889135361E-001	6.531660445034504E-003
1.719999909400940E-001	6.633712910115719E-003
1.729999929666519E-001	6.732568144798279E-003
1.739999949932098E-001	6.828113924711943E-003
1.749999970197678E-001	6.920246873050928E-003
1.759999990463257E-001	7.008871529251337E-003
1.770000010728836E-001	7.093900814652443E-003
1.779999881982803E-001	7.175257895141840E-003
1.789999902248383E-001	7.252874318510294E-003
1.799999922513962E-001	7.326691411435604E-003
1.809999942779541E-001	7.396659813821316E-003
1.819999963045120E-001	7.462739944458008E-003
1.829999983310699E-001	7.524901535362005E-003
1.840000003576279E-001	7.583124097436666E-003
1.850000023841858E-001	7.637395989149809E-003
1.859999895095825E-001	7.687715347856283E-003
1.869999915361404E-001	7.734088692814112E-003
1.879999935626984E-001	7.776531856507063E-003
1.889999955892563E-001	7.815068587660789E-003
1.899999976158142E-001	7.849732413887978E-003
1.909999996423721E-001	7.880561053752899E-003
1.920000016689301E-001	7.907603867352009E-003
1.929999887943268E-001	7.930913940072060E-003
1.939999908208847E-001	7.950553670525551E-003
1.949999928474426E-001	7.966589182615280E-003
1.959999948740005E-001	7.979094050824642E-003
1.969999969005585E-001	7.988146506249905E-003
1.979999989271164E-001	7.993828505277634E-003
1.990000009536743E-001	7.996227592229843E-003
1.999999880790710E-001	7.995435968041420E-003
2.009999901056290E-001	7.991546764969826E-003
2.019999921321869E-001	7.984658703207970E-003
2.029999941587448E-001	7.974870502948761E-003
2.039999961853027E-001	7.962285540997982E-003
2.049999982118607E-001	7.947006262838840E-003
2.060000002384186E-001	7.929136976599693E-003
2.070000022649765E-001	7.908785715699196E-003
2.079999893903732E-001	7.886055856943130E-003
2.089999914169312E-001	7.861055433750153E-003
2.099999934434891E-001	7.833890616893768E-003
2.109999954700470E-001	7.804666180163622E-003
2.119999974966049E-001	7.773486897349358E-003
2.129999995231628E-001	7.740457076579332E-003
2.140000015497208E-001	7.705678697675467E-003
2.149999886751175E-001	7.669252343475819E-003
2.159999907016754E-001	7.631277199834585E-003
2.169999927282333E-001	7.591850589960814E-003
2.179999947547913E-001	7.551067043095827E-003
2.189999967813492E-001	7.509020157158375E-003
2.199999988079071E-001	7.465799804776907E-003
2.210000008344650E-001	7.421494461596012E-003
2.220000028610229E-001	7.376188877969980E-003
2.229999899864197E-001	7.329965941607952E-003
2.239999920129776E-001	7.282905746251345E-003
2.249999940395355E-001	7.235086057335138E-003
2.259999960660934E-001	7.186580915004015E-003
2.269999980926514E-001	7.137462496757507E-003
2.280000001192093E-001	7.087799254804850E-003
2.290000021457672E-001	7.037657778710127E-003
2.299999892711639E-001	6.987101398408413E-003
2.309999912977219E-001	6.936190649867058E-003
2.319999933242798E-001	6.884983740746975E-003
2.329999953508377E-001	6.833535153418779E-003
2.339999973773956E-001	6.781898438930511E-003
2.349999994039536E-001	6.730122957378626E-003
2.360000014305115E-001	6.678256206214428E-003
2.370000034570694E-001	6.626342888921499E-003
2.379999905824661E-001	6.574425846338272E-003
2.389999926090240E-001	6.522545590996742E-003
2.399999946355820E-001	6.470739375799894E-003
2.409999966621399E-001	6.419043056666851E-003
2.419999986886978E-001	6.367490161210299E-003
2.430000007152557E-001	6.316111888736486E-003
2.440000027418137E-001	6.264938041567802E-003
2.449999898672104E-001	6.213995628058910E-003
2.459999918937683E-001	6.163310259580612E-003
2.469999939203262E-001	6.112906150519848E-003
2.479999959468842E-001	6.062805186957121E-003
2.489999979734421E-001	6.013027857989073E-003
2.500000000000000E-001	5.963593255728483E-003
2.509999871253967E-001	5.914517678320408E-003
2.520000040531158E-001	5.865818355232477E-003
2.529999911785126E-001	5.817509256303310E-003
2.540000081062317E-001	5.769603885710239E-003
2.549999952316284E-001	5.722113884985447E-003
2.559999823570251E-001	5.675050429999828E-003
2.569999992847443E-001	5.628423299640417E-003
2.579999864101410E-001	5.582240410149097E-003
2.590000033378601E-001	5.536510143429041E-003
2.599999904632568E-001	5.491239018738270E-003
2.610000073909760E-001	5.446433089673519E-003
2.619999945163727E-001	5.402096547186375E-003
2.629999816417694E-001	5.358234047889709E-003
2.639999985694885E-001	5.314849317073822E-003
2.649999856948853E-001	5.271944217383862E-003
2.660000026226044E-001	5.229521542787552E-003
2.669999897480011E-001	5.187582224607468E-003
2.680000066757202E-001	5.146127194166183E-003
2.689999938011169E-001	5.105156917124987E-003
2.700000107288361E-001	5.064671393483877E-003
2.709999978542328E-001	5.024669226258993E-003
2.719999849796295E-001	4.985149484127760E-003
2.730000019073486E-001	4.946110770106316E-003
2.739999890327454E-001	4.907550755888224E-003
2.750000059604645E-001	4.869468044489622E-003
2.759999930858612E-001	4.831858910620213E-003
2.770000100135803E-001	4.794721491634846E-003
2.779999971389771E-001	4.758051596581936E-003
2.789999842643738E-001	4.721846431493759E-003
2.800000011920929E-001	4.686102271080017E-003
2.809999883174896E-001	4.650814924389124E-003
2.820000052452087E-001	4.615980200469494E-003
2.829999923706055E-001	4.581594374030828E-003
2.840000092983246E-001	4.547652788460255E-003
2.849999964237213E-001	4.514150787144899E-003
2.859999835491180E-001	4.481083713471890E-003
2.870000004768372E-001	4.448446910828352E-003
2.879999876022339E-001	4.416235256940126E-003
2.890000045299530E-001	4.384443629533052E-003
2.899999916553497E-001	4.353067837655544E-003
2.910000085830688E-001	4.322101827710867E-003
2.919999957084656E-001	4.291540477424860E-003
2.929999828338623E-001	4.261379130184650E-003
2.939999997615814E-001	4.231612198054791E-003
2.949999868869781E-001	4.202234558761120E-003
2.960000038146973E-001	4.173241090029478E-003
2.969999909400940E-001	4.144626203924418E-003
2.980000078678131E-001	4.116384312510490E-003
2.989999949932098E-001	4.088510759174824E-003
3.000000119209290E-001	4.060999955981970E-003
3.009999990463257E-001	4.033846780657768E-003
3.019999861717224E-001	4.007045645266771E-003
3.030000030994415E-001	3.980591893196106E-003
3.039999902248383E-001	3.954479470849037E-003
3.050000071525574E-001	3.928704187273979E-003
3.059999942779541E-001	3.903260454535484E-003
3.070000112056732E-001	3.878143150359392E-003
3.079999983310699E-001	3.853347385302186E-003
3.089999854564667E-001	3.828868037089705E-003
3.100000023841858E-001	3.804700216278434E-003
3.109999895095825E-001	3.780839033424854E-003
3.120000064373016E-001	3.757279599085450E-003
3.129999935626984E-001	3.734017256647348E-003
3.140000104904175E-001	3.711047116667032E-003
3.149999976158142E-001	3.688364522531629E-003
3.159999847412109E-001	3.665964817628264E-003
3.170000016689301E-001	3.643843578174710E-003
3.179999887943268E-001	3.621996147558093E-003
3.190000057220459E-001	3.600418334826827E-003
3.199999928474426E-001	3.579105483368039E-003
3.210000097751617E-001	3.558053402230144E-003
3.219999969005585E-001	3.537257900461555E-003
3.229999840259552E-001	3.516714554280043E-003
3.240000009536743E-001	3.496419405564666E-003
3.249999880790710E-001	3.476368496194482E-003
3.260000050067902E-001	3.456557635217905E-003
3.269999921321869E-001	3.436983097344637E-003
3.280000090599060E-001	3.417640691623092E-003
3.289999961853027E-001	3.398526692762971E-003
3.299999833106995E-001	3.379637608304620E-003
3.310000002384186E-001	3.360969480127096E-003
3.319999873638153E-001	3.342518815770745E-003
3.330000042915344E-001	3.324281889945269E-003
3.339999914169312E-001	3.306255210191011E-003
3.350000083446503E-001	3.288435516878963E-003
3.359999954700470E-001	3.270819317549467E-003
3.370000123977661E-001	3.253403119742870E-003
3.379999995231628E-001	3.236183896660805E-003
3.389999866485596E-001	3.219158388674259E-003
3.400000035762787E-001	3.202323336154222E-003
3.409999907016754E-001	3.185675712302327E-003
3.420000076293945E-001	3.169212257489562E-003
3.429999947547913E-001	3.152930410578847E-003
3.440000116825104E-001	3.136826679110527E-003
3.449999988079071E-001	3.120898734778166E-003
3.459999859333038E-001	3.105143317952752E-003
3.470000028610229E-001	3.089557867497206E-003
3.479999899864197E-001	3.074139589443803E-003
3.490000069141388E-001	3.058885922655463E-003
3.499999940395355E-001	3.043794073164463E-003
3.510000109672546E-001	3.028861479833722E-003
3.519999980926514E-001	3.014085581526160E-003
3.529999852180481E-001	2.999463817104697E-003
3.540000021457672E-001	2.984994091093540E-003
3.549999892711639E-001	2.970673842355609E-003
3.560000061988831E-001	2.956500509753823E-003
3.569999933242798E-001	2.942471997812390E-003
3.580000102519989E-001	2.928585978224874E-003
3.589999973773956E-001	2.914840355515480E-003
3.599999845027924E-001	2.901232568547130E-003
3.610000014305115E-001	2.887760987505317E-003
3.619999885559082E-001	2.874423051252961E-003
3.630000054836273E-001	2.861217129975557E-003
3.639999926090240E-001	2.848140895366669E-003
3.650000095367432E-001	2.835192484781146E-003
3.659999966621399E-001	2.822369802743196E-003
3.669999837875366E-001	2.809671219438314E-003
3.680000007152557E-001	2.797094639390707E-003
3.689999878406525E-001	2.784638199955225E-003
3.700000047683716E-001	2.772300271317363E-003
3.709999918937683E-001	2.760078990831971E-003
3.720000088214874E-001	2.747972495853901E-003
3.729999959468842E-001	2.735979389399290E-003
3.740000128746033E-001	2.724097808822989E-003
3.750000000000000E-001	2.712325891479850E-003
3.759999871253967E-001	2.700662473216653E-003
3.770000040531158E-001	2.689105691388249E-003
3.779999911785126E-001	2.677654149010777E-003
3.790000081062317E-001	2.666306216269732E-003
3.799999952316284E-001	2.655060263350606E-003
3.810000121593475E-001	2.643915126100183E-003
3.819999992847443E-001	2.632869174703956E-003
3.829999864101410E-001	2.621921012178063E-003
3.840000033378601E-001	2.611069474369287E-003
3.849999904632568E-001	2.600312698632479E-003
3.860000073909760E-001	2.589649753645062E-003
3.869999945163727E-001	2.579079475253820E-003
3.880000114440918E-001	2.568600000813603E-003
3.889999985694885E-001	2.558210631832480E-003
3.899999856948853E-001	2.547909738495946E-003
3.910000026226044E-001	2.537696156650782E-003
3.919999897480011E-001	2.527568954974413E-003
3.930000066757202E-001	2.517526736482978E-003
3.939999938011169E-001	2.507568569853902E-003
3.950000107288361E-001	2.497693058103323E-003
3.959999978542328E-001	2.487899037078023E-003
3.969999849796295E-001	2.478185808286071E-003
3.980000019073486E-001	2.468551741912961E-003
3.989999890327454E-001	2.458996372297406E-003
4.000000059604645E-001	2.449518302455544E-003
4.009999930858612E-001	2.440116601064801E-003
4.020000100135803E-001	2.430790103971958E-003
4.029999971389771E-001	2.421538112685084E-003
4.039999842643738E-001	2.412359695881605E-003
4.050000011920929E-001	2.403253456577659E-003
4.059999883174896E-001	2.394218929111958E-003
4.070000052452087E-001	2.385255182161927E-003
4.079999923706055E-001	2.376361051574349E-003
4.090000092983246E-001	2.367535606026649E-003
4.099999964237213E-001	2.358778379857540E-003
4.110000133514404E-001	2.350087976083159E-003
4.120000004768372E-001	2.341464161872864E-003
4.129999876022339E-001	2.332905773073435E-003
4.140000045299530E-001	2.324411878362298E-003
4.149999916553497E-001	2.315982012078166E-003
4.160000085830688E-001	2.307615010067821E-003
4.169999957084656E-001	2.299310639500618E-003
4.180000126361847E-001	2.291067503392696E-003
4.189999997615814E-001	2.282885368913412E-003
4.199999868869781E-001	2.274763304740191E-003
4.210000038146973E-001	2.266700379550457E-003
4.219999909400940E-001	2.258696360513568E-003
4.230000078678131E-001	2.250750083476305E-003
4.239999949932098E-001	2.242861315608025E-003
4.250000119209290E-001	2.235028892755508E-003
4.259999990463257E-001	2.227252582088113E-003
4.269999861717224E-001	2.219531452283263E-003
4.280000030994415E-001	2.211865037679672E-003
4.289999902248383E-001	2.204252639785409E-003
4.300000071525574E-001	2.196693560108542E-003
4.309999942779541E-001	2.189187332987785E-003
4.320000112056732E-001	2.181733259931207E-003
4.329999983310699E-001	2.174330875277519E-003
4.339999854564667E-001	2.166979247704148E-003
4.350000023841858E-001	2.159678377211094E-003
4.359999895095825E-001	2.152427099645138E-003
4.370000064373016E-001	2.145225415006280E-003
4.379999935626984E-001	2.138072159141302E-003
4.390000104904175E-001	2.130967332050204E-003
4.399999976158142E-001	2.123910235241055E-003
4.409999847412109E-001	2.116900403052568E-003
4.420000016689301E-001	2.109936904162169E-003
4.429999887943268E-001	2.103019971400499E-003
4.440000057220459E-001	2.096148440614343E-003
4.449999928474426E-001	2.089322078973055E-003
4.460000097751617E-001	2.082540653645992E-003
4.469999969005585E-001	2.075803233310580E-003
4.480000138282776E-001	2.069109585136175E-003
4.490000009536743E-001	2.062459243461490E-003
4.499999880790710E-001	2.055851742625237E-003
4.510000050067902E-001	2.049286849796772E-003
4.519999921321869E-001	2.042763633653522E-003
4.530000090599060E-001	2.036282094195485E-003
4.539999961853027E-001	2.029841532930732E-003
4.550000131130219E-001	2.023441717028618E-003
4.560000002384186E-001	2.017081947997212E-003
4.569999873638153E-001	2.010762225836515E-003
4.580000042915344E-001	2.004481852054596E-003
4.589999914169312E-001	1.998240593820810E-003
4.600000083446503E-001	1.992037985473871E-003
4.609999954700470E-001	1.985873561352491E-003
4.620000123977661E-001	1.979747088626027E-003
4.629999995231628E-001	1.973657868802547E-003
4.639999866485596E-001	1.967606134712696E-003
4.650000035762787E-001	1.961590955033898E-003
4.659999907016754E-001	1.955612329766154E-003
4.670000076293945E-001	1.949669560417533E-003
4.679999947547913E-001	1.943762646988034E-003
4.690000116825104E-001	1.937891007401049E-003
4.699999988079071E-001	1.932054408825934E-003
4.709999859333038E-001	1.926252502016723E-003
4.720000028610229E-001	1.920485054142773E-003
4.729999899864197E-001	1.914751483127475E-003
4.740000069141388E-001	1.909051672555506E-003
4.749999940395355E-001	1.903385156765580E-003
4.760000109672546E-001	1.897751819342375E-003
4.769999980926514E-001	1.892151194624603E-003
4.779999852180481E-001	1.886582933366299E-003
4.790000021457672E-001	1.881046919152141E-003
4.799999892711639E-001	1.875542802736163E-003
4.810000061988831E-001	1.870070118457079E-003
4.819999933242798E-001	1.864628866314888E-003
4.830000102519989E-001	1.859218464232981E-003
4.839999973773956E-001	1.853838795796037E-003
4.850000143051147E-001	1.848489511758089E-003
4.860000014305115E-001	1.843170495703816E-003
4.869999885559082E-001	1.837881281971931E-003
4.880000054836273E-001	1.832621637731791E-003
4.889999926090240E-001	1.827391446568072E-003
4.900000095367432E-001	1.822190242819488E-003
4.909999966621399E-001	1.817017910070717E-003
4.920000135898590E-001	1.811874099075794E-003
4.930000007152557E-001	1.806758577004075E-003
4.939999878406525E-001	1.801671227440238E-003
4.950000047683716E-001	1.796611701138318E-003
4.959999918937683E-001	1.791579648852348E-003
4.970000088214874E-001	1.786575070582330E-003
4.979999959468842E-001	1.781597500666976E-003
4.990000128746033E-001	1.776646822690964E-003
